qd1_fort_orange
Integration time [ms]:  500,00
Averaging Nr. [scans]: 1
Smoothing Nr. [pixels]: 0
Data measured with spectrometer [name]: 1412150E1
Wave   ;Sample   ;Dark     ;Reference;Scope
[nm]   ;[counts] ;[counts] ;[counts] 

 337,19;21156,000; 4519,000;    0,000
 337,48;21945,000; 4777,000;    0,000
 337,77;22542,000; 4996,000;    0,000
 338,07;22955,000; 5120,000;    0,000
 338,36;23939,000; 5286,000;    0,000
 338,66;24742,000; 5142,000;    0,000
 338,95;24896,000; 5652,000;    0,000
 339,24;25489,000; 5451,000;    0,000
 339,54;25843,000; 5497,000;    0,000
 339,83;27219,000; 5938,000;    0,000
 340,12;27512,000; 6176,000;    0,000
 340,42;28542,000; 5847,000;    0,000
 340,71;28574,000; 6095,000;    0,000
 341,00;29853,000; 6297,000;    0,000
 341,30;30149,000; 6500,000;    0,000
 341,59;31292,000; 6309,000;    0,000
 341,88;32278,000; 6505,000;    0,000
 342,18;31987,000; 6662,000;    0,000
 342,47;33676,000; 7136,000;    0,000
 342,76;34608,000; 7683,000;    0,000
 343,06;34645,000; 6938,000;    0,000
 343,35;35613,000; 7263,000;    0,000
 343,64;35767,000; 7272,000;    0,000
 343,94;36456,000; 7497,000;    0,000
 344,23;37191,000; 7195,000;    0,000
 344,52;38648,000; 8224,000;    0,000
 344,82;39720,000; 7697,000;    0,000
 345,11;39679,000; 7983,000;    0,000
 345,40;40745,000; 8548,000;    0,000
 345,70;41823,000; 8504,000;    0,000
 345,99;42001,000; 8171,000;    0,000
 346,28;42912,000; 8727,000;    0,000
 346,58;43991,000; 8549,000;    0,000
 346,87;44848,000; 8801,000;    0,000
 347,16;45611,000; 9409,000;    0,000
 347,45;46726,000; 9224,000;    0,000
 347,75;47559,000; 9093,000;    0,000
 348,04;48977,000;10353,000;    0,000
 348,33;49561,000;10122,000;    0,000
 348,63;50523,000;10359,000;    0,000
 348,92;51040,000; 9975,000;    0,000
 349,21;52705,000;10645,000;    0,000
 349,51;52764,000;10752,000;    0,000
 349,80;54058,000;10882,000;    0,000
 350,09;54903,000;10725,000;    0,000
 350,38;55968,000;11350,000;    0,000
 350,68;56536,000;11062,000;    0,000
 350,97;58430,000;12057,000;    0,000
 351,26;59460,000;12382,000;    0,000
 351,55;59901,000;11691,000;    0,000
 351,85;59965,000;11512,000;    0,000
 352,14;62288,000;12062,000;    0,000
 352,43;63112,000;12134,000;    0,000
 352,73;63428,000;12194,000;    0,000
 353,02;63753,000;12961,000;    0,000
 353,31;63900,000;12741,000;    0,000
 353,60;63753,000;13288,000;    0,000
 353,90;63900,000;13402,000;    0,000
 354,19;63753,000;13302,000;    0,000
 354,48;63900,000;13583,000;    0,000
 354,77;63753,000;13930,000;    0,000
 355,07;63900,000;14181,000;    0,000
 355,36;63753,000;14068,000;    0,000
 355,65;63900,000;15094,000;    0,000
 355,94;63753,000;14989,000;    0,000
 356,23;63900,000;15518,000;    0,000
 356,53;63753,000;16018,000;    0,000
 356,82;63900,000;16227,000;    0,000
 357,11;63753,000;16204,000;    0,000
 357,40;63900,000;15979,000;    0,000
 357,70;63753,000;16676,000;    0,000
 357,99;63900,000;17580,000;    0,000
 358,28;63753,000;17299,000;    0,000
 358,57;63900,000;18173,000;    0,000
 358,87;63753,000;17755,000;    0,000
 359,16;63900,000;18435,000;    0,000
 359,45;63753,000;18771,000;    0,000
 359,74;63900,000;19402,000;    0,000
 360,03;63753,000;20186,000;    0,000
 360,33;63900,000;19664,000;    0,000
 360,62;63753,000;19493,000;    0,000
 360,91;63900,000;20114,000;    0,000
 361,20;63753,000;20008,000;    0,000
 361,49;63900,000;20694,000;    0,000
 361,79;63753,000;20705,000;    0,000
 362,08;63900,000;21141,000;    0,000
 362,37;63753,000;21162,000;    0,000
 362,66;63900,000;20959,000;    0,000
 362,95;63753,000;21384,000;    0,000
 363,25;63900,000;21529,000;    0,000
 363,54;63753,000;21446,000;    0,000
 363,83;63900,000;21732,000;    0,000
 364,12;63753,000;21897,000;    0,000
 364,41;63900,000;21721,000;    0,000
 364,70;63753,000;22250,000;    0,000
 365,00;63900,000;22000,000;    0,000
 365,29;63753,000;22139,000;    0,000
 365,58;63900,000;22063,000;    0,000
 365,87;63753,000;21752,000;    0,000
 366,16;63900,000;21322,000;    0,000
 366,45;63753,000;21847,000;    0,000
 366,75;63900,000;21324,000;    0,000
 367,04;63753,000;21463,000;    0,000
 367,33;63900,000;21349,000;    0,000
 367,62;63753,000;21652,000;    0,000
 367,91;63900,000;21204,000;    0,000
 368,20;63753,000;20775,000;    0,000
 368,50;63900,000;21236,000;    0,000
 368,79;63753,000;20604,000;    0,000
 369,08;63900,000;20361,000;    0,000
 369,37;63753,000;20559,000;    0,000
 369,66;63900,000;20310,000;    0,000
 369,95;63753,000;20243,000;    0,000
 370,24;63900,000;20353,000;    0,000
 370,53;63753,000;19478,000;    0,000
 370,83;63900,000;19258,000;    0,000
 371,12;63753,000;18966,000;    0,000
 371,41;63900,000;18842,000;    0,000
 371,70;63753,000;18296,000;    0,000
 371,99;63900,000;18008,000;    0,000
 372,28;63753,000;17604,000;    0,000
 372,57;63900,000;17814,000;    0,000
 372,86;63753,000;16670,000;    0,000
 373,16;63900,000;16681,000;    0,000
 373,45;63753,000;16549,000;    0,000
 373,74;63900,000;15829,000;    0,000
 374,03;63753,000;16024,000;    0,000
 374,32;63900,000;16248,000;    0,000
 374,61;63753,000;15984,000;    0,000
 374,90;63900,000;15269,000;    0,000
 375,19;63753,000;14620,000;    0,000
 375,48;63900,000;14773,000;    0,000
 375,78;63753,000;14703,000;    0,000
 376,07;63900,000;14255,000;    0,000
 376,36;63753,000;14048,000;    0,000
 376,65;63900,000;14089,000;    0,000
 376,94;63753,000;13344,000;    0,000
 377,23;63900,000;13638,000;    0,000
 377,52;63753,000;13325,000;    0,000
 377,81;63900,000;12717,000;    0,000
 378,10;63753,000;13206,000;    0,000
 378,39;63900,000;13371,000;    0,000
 378,68;63753,000;12866,000;    0,000
 378,97;63900,000;12559,000;    0,000
 379,26;63753,000;11454,000;    0,000
 379,56;63900,000;11636,000;    0,000
 379,85;63753,000;12247,000;    0,000
 380,14;63900,000;11310,000;    0,000
 380,43;63753,000;11443,000;    0,000
 380,72;63900,000;12082,000;    0,000
 381,01;63753,000;11839,000;    0,000
 381,30;63900,000;11308,000;    0,000
 381,59;63753,000;11084,000;    0,000
 381,88;63900,000;10752,000;    0,000
 382,17;63671,000;10656,000;    0,000
 382,46;62227,000;11054,000;    0,000
 382,75;61336,000;10779,000;    0,000
 383,04;61124,000;10369,000;    0,000
 383,33;59686,000;10529,000;    0,000
 383,62;59373,000;10143,000;    0,000
 383,91;58465,000; 9842,000;    0,000
 384,20;57774,000;10664,000;    0,000
 384,49;57077,000;10016,000;    0,000
 384,78;56485,000; 9537,000;    0,000
 385,07;55266,000; 9869,000;    0,000
 385,36;53822,000; 9800,000;    0,000
 385,65;53578,000; 9627,000;    0,000
 385,94;52658,000; 9539,000;    0,000
 386,23;51752,000; 9454,000;    0,000
 386,52;51089,000; 8805,000;    0,000
 386,81;50194,000; 9847,000;    0,000
 387,10;50065,000; 9246,000;    0,000
 387,39;48296,000; 8569,000;    0,000
 387,68;47452,000; 8956,000;    0,000
 387,97;46296,000; 9054,000;    0,000
 388,26;46207,000; 8392,000;    0,000
 388,55;45056,000; 8528,000;    0,000
 388,84;44928,000; 8787,000;    0,000
 389,13;43891,000; 8379,000;    0,000
 389,42;43034,000; 8860,000;    0,000
 389,71;42039,000; 8775,000;    0,000
 390,00;41966,000; 8527,000;    0,000
 390,29;40969,000; 8773,000;    0,000
 390,58;39691,000; 8302,000;    0,000
 390,87;39110,000; 8653,000;    0,000
 391,16;38877,000; 8430,000;    0,000
 391,45;37736,000; 8257,000;    0,000
 391,74;37058,000; 8053,000;    0,000
 392,03;37313,000; 8568,000;    0,000
 392,32;35299,000; 7993,000;    0,000
 392,61;34786,000; 7782,000;    0,000
 392,90;33428,000; 7701,000;    0,000
 393,19;33356,000; 7850,000;    0,000
 393,48;31986,000; 7493,000;    0,000
 393,77;31775,000; 7194,000;    0,000
 394,06;31473,000; 7300,000;    0,000
 394,35;30671,000; 7192,000;    0,000
 394,64;30164,000; 7166,000;    0,000
 394,93;28732,000; 6812,000;    0,000
 395,22;28487,000; 7084,000;    0,000
 395,51;28558,000; 7275,000;    0,000
 395,80;27229,000; 6721,000;    0,000
 396,09;26735,000; 6734,000;    0,000
 396,38;25760,000; 6827,000;    0,000
 396,67;25383,000; 6625,000;    0,000
 396,95;24885,000; 7214,000;    0,000
 397,24;24300,000; 7052,000;    0,000
 397,53;24509,000; 8068,000;    0,000
 397,82;28433,000; 8647,000;    0,000
 398,11;33095,000; 9783,000;    0,000
 398,40;35494,000;10706,000;    0,000
 398,69;38596,000;11843,000;    0,000
 398,98;38408,000;12285,000;    0,000
 399,27;40540,000;12832,000;    0,000
 399,56;39173,000;12997,000;    0,000
 399,85;40015,000;13598,000;    0,000
 400,14;41019,000;14305,000;    0,000
 400,42;40086,000;14131,000;    0,000
 400,71;40421,000;13799,000;    0,000
 401,00;41170,000;14597,000;    0,000
 401,29;40787,000;14540,000;    0,000
 401,58;41017,000;14557,000;    0,000
 401,87;41210,000;15101,000;    0,000
 402,16;40930,000;14872,000;    0,000
 402,45;40654,000;14890,000;    0,000
 402,74;40169,000;15279,000;    0,000
 403,03;40064,000;14890,000;    0,000
 403,31;40259,000;15193,000;    0,000
 403,60;39284,000;14965,000;    0,000
 403,89;39151,000;14546,000;    0,000
 404,18;39046,000;14709,000;    0,000
 404,47;38304,000;14314,000;    0,000
 404,76;38701,000;14718,000;    0,000
 405,05;37508,000;14495,000;    0,000
 405,34;37641,000;13520,000;    0,000
 405,62;37313,000;14395,000;    0,000
 405,91;36697,000;14404,000;    0,000
 406,20;36504,000;14296,000;    0,000
 406,49;36487,000;14141,000;    0,000
 406,78;35894,000;13849,000;    0,000
 407,07;36168,000;13801,000;    0,000
 407,36;35888,000;13823,000;    0,000
 407,64;35769,000;13621,000;    0,000
 407,93;34629,000;13981,000;    0,000
 408,22;33756,000;13202,000;    0,000
 408,51;33228,000;13321,000;    0,000
 408,80;31793,000;12237,000;    0,000
 409,09;32280,000;12421,000;    0,000
 409,38;30714,000;11910,000;    0,000
 409,66;30490,000;12082,000;    0,000
 409,95;28731,000;11496,000;    0,000
 410,24;26680,000; 9873,000;    0,000
 410,53;24387,000; 8962,000;    0,000
 410,82;20295,000; 7956,000;    0,000
 411,11;15008,000; 7008,000;    0,000
 411,39;10397,000; 6189,000;    0,000
 411,68; 8621,000; 4926,000;    0,000
 411,97; 8041,000; 3552,000;    0,000
 412,26; 7837,000; 3121,000;    0,000
 412,55; 7656,000; 3057,000;    0,000
 412,83; 7600,000; 3416,000;    0,000
 413,12; 6954,000; 2552,000;    0,000
 413,41; 6848,000; 2621,000;    0,000
 413,70; 7182,000; 3321,000;    0,000
 413,99; 6067,000; 2190,000;    0,000
 414,27; 5606,000; 2051,000;    0,000
 414,56; 5292,000; 2295,000;    0,000
 414,85; 5160,000; 2483,000;    0,000
 415,14; 4770,000; 2062,000;    0,000
 415,43; 4891,000; 1646,000;    0,000
 415,71; 4126,000; 1325,000;    0,000
 416,00; 4410,000; 1612,000;    0,000
 416,29; 4303,000; 1599,000;    0,000
 416,58; 4285,000; 1686,000;    0,000
 416,87; 4189,000; 1708,000;    0,000
 417,15; 3709,000; 1217,000;    0,000
 417,44; 3940,000; 1707,000;    0,000
 417,73; 3923,000; 1774,000;    0,000
 418,02; 4212,000; 1850,000;    0,000
 418,30; 3738,000; 1393,000;    0,000
 418,59; 3882,000; 1702,000;    0,000
 418,88; 3836,000; 1614,000;    0,000
 419,17; 3487,000; 1292,000;    0,000
 419,45; 3370,000; 1342,000;    0,000
 419,74; 3564,000; 1466,000;    0,000
 420,03; 3117,000;  888,000;    0,000
 420,32; 3117,000; 1298,000;    0,000
 420,60; 3669,000; 1633,000;    0,000
 420,89; 3246,000; 1336,000;    0,000
 421,18; 3298,000; 1224,000;    0,000
 421,47; 2800,000;  915,000;    0,000
 421,75; 2764,000;  798,000;    0,000
 422,04; 2514,000;  988,000;    0,000
 422,33; 2687,000;  919,000;    0,000
 422,62; 3050,000; 1261,000;    0,000
 422,90; 2768,000;  868,000;    0,000
 423,19; 2767,000;  868,000;    0,000
 423,48; 2663,000;  953,000;    0,000
 423,77; 2475,000;  989,000;    0,000
 424,05; 2499,000;  771,000;    0,000
 424,34; 2331,000;  777,000;    0,000
 424,63; 2769,000; 1289,000;    0,000
 424,91; 2771,000; 1252,000;    0,000
 425,20; 2507,000;  825,000;    0,000
 425,49; 2565,000; 1191,000;    0,000
 425,78; 2587,000; 1265,000;    0,000
 426,06; 2460,000;  972,000;    0,000
 426,35; 2895,000; 1885,000;    0,000
 426,64; 2467,000; 1272,000;    0,000
 426,92; 2534,000; 1358,000;    0,000
 427,21; 2077,000;  772,000;    0,000
 427,50; 2030,000;  471,000;    0,000
 427,78; 1939,000;  580,000;    0,000
 428,07; 9605,000;10971,000;    0,000
 428,36; 1880,000;  696,000;    0,000
 428,65; 3168,000; 1755,000;    0,000
 428,93; 3158,000; 1399,000;    0,000
 429,22; 4729,000; 2217,000;    0,000
 429,51; 6030,000; 2177,000;    0,000
 429,79; 6962,000; 2359,000;    0,000
 430,08; 7983,000; 2793,000;    0,000
 430,37; 8417,000; 3226,000;    0,000
 430,65; 8450,000; 3038,000;    0,000
 430,94; 9051,000; 3643,000;    0,000
 431,23; 9434,000; 3501,000;    0,000
 431,51; 9921,000; 3635,000;    0,000
 431,80; 9662,000; 3812,000;    0,000
 432,09; 9873,000; 3784,000;    0,000
 432,37; 9957,000; 4191,000;    0,000
 432,66;10223,000; 4093,000;    0,000
 432,95;10414,000; 3871,000;    0,000
 433,23;10621,000; 4511,000;    0,000
 433,52;10560,000; 4259,000;    0,000
 433,81;10212,000; 4230,000;    0,000
 434,09;10613,000; 4322,000;    0,000
 434,38;10485,000; 4106,000;    0,000
 434,66;10394,000; 4497,000;    0,000
 434,95;10754,000; 4346,000;    0,000
 435,24;10681,000; 4354,000;    0,000
 435,52;10314,000; 4004,000;    0,000
 435,81;10150,000; 3892,000;    0,000
 436,10;10391,000; 4531,000;    0,000
 436,38;10348,000; 4278,000;    0,000
 436,67;10532,000; 4196,000;    0,000
 436,95;10672,000; 4319,000;    0,000
 437,24;10069,000; 4133,000;    0,000
 437,53;10113,000; 3687,000;    0,000
 437,81;10672,000; 4544,000;    0,000
 438,10;11167,000; 4729,000;    0,000
 438,39;10500,000; 3826,000;    0,000
 438,67;10410,000; 3878,000;    0,000
 438,96;10406,000; 4744,000;    0,000
 439,24;10321,000; 4235,000;    0,000
 439,53;10269,000; 4443,000;    0,000
 439,82; 9573,000; 3668,000;    0,000
 440,10; 9925,000; 4050,000;    0,000
 440,39; 9950,000; 3995,000;    0,000
 440,67; 9726,000; 3706,000;    0,000
 440,96; 8682,000; 3703,000;    0,000
 441,25; 8654,000; 3713,000;    0,000
 441,53; 8038,000; 3424,000;    0,000
 441,82; 6391,000; 2410,000;    0,000
 442,10; 5192,000; 2274,000;    0,000
 442,39; 3611,000; 1444,000;    0,000
 442,67; 4758,000; 4458,000;    0,000
 442,96; 2129,000; 1101,000;    0,000
 443,25; 1953,000;  738,000;    0,000
 443,53; 2938,000; 1578,000;    0,000
 443,82; 2129,000;  791,000;    0,000
 444,10; 2539,000; 1148,000;    0,000
 444,39; 2216,000; 1098,000;    0,000
 444,67; 2680,000; 1066,000;    0,000
 444,96; 2038,000;  674,000;    0,000
 445,24; 2384,000; 1002,000;    0,000
 445,53; 2357,000;  837,000;    0,000
 445,82; 2712,000; 1072,000;    0,000
 446,10; 2183,000;  884,000;    0,000
 446,39; 2145,000;  670,000;    0,000
 446,67; 2477,000;  810,000;    0,000
 446,96; 2294,000;  727,000;    0,000
 447,24; 2189,000;  677,000;    0,000
 447,53; 2347,000;  749,000;    0,000
 447,81; 2176,000;  766,000;    0,000
 448,10; 2538,000;  990,000;    0,000
 448,38; 2274,000;  573,000;    0,000
 448,67; 2978,000; 1209,000;    0,000
 448,95; 2491,000; 1076,000;    0,000
 449,24; 2610,000; 1090,000;    0,000
 449,53; 2296,000;  990,000;    0,000
 449,81; 2063,000;  561,000;    0,000
 450,10; 2202,000;  480,000;    0,000
 450,38; 2459,000;  743,000;    0,000
 450,67; 2966,000; 1212,000;    0,000
 450,95; 2644,000;  890,000;    0,000
 451,24; 2227,000;  478,000;    0,000
 451,52; 2687,000;  717,000;    0,000
 451,81; 2413,000;  999,000;    0,000
 452,09; 2989,000; 1007,000;    0,000
 452,38; 2659,000; 1098,000;    0,000
 452,66; 2465,000;  852,000;    0,000
 452,95; 2629,000;  938,000;    0,000
 453,23; 2968,000; 1266,000;    0,000
 453,52; 2726,000; 1055,000;    0,000
 453,80; 2911,000; 1298,000;    0,000
 454,08; 2854,000; 1019,000;    0,000
 454,37; 2694,000;  832,000;    0,000
 454,65; 2567,000;  906,000;    0,000
 454,94; 3217,000; 1042,000;    0,000
 455,22; 2537,000;  650,000;    0,000
 455,51; 2707,000;  664,000;    0,000
 455,79; 3270,000; 1497,000;    0,000
 456,08; 3025,000; 1360,000;    0,000
 456,36; 3340,000; 1266,000;    0,000
 456,65; 2972,000; 1088,000;    0,000
 456,93; 2683,000;  871,000;    0,000
 457,22; 2669,000;  715,000;    0,000
 457,50; 2406,000;  671,000;    0,000
 457,79; 2910,000;  772,000;    0,000
 458,07; 3457,000; 1381,000;    0,000
 458,35; 2895,000;  832,000;    0,000
 458,64; 2838,000;  905,000;    0,000
 458,92; 3453,000; 1508,000;    0,000
 459,21; 2910,000;  919,000;    0,000
 459,49; 3178,000;  909,000;    0,000
 459,78; 2897,000;  975,000;    0,000
 460,06; 2983,000;  921,000;    0,000
 460,34; 2854,000;  777,000;    0,000
 460,63; 2887,000;  756,000;    0,000
 460,91; 2830,000;  756,000;    0,000
 461,20; 3108,000;  910,000;    0,000
 461,48; 3047,000; 1030,000;    0,000
 461,77; 3249,000;  895,000;    0,000
 462,05; 3225,000;  991,000;    0,000
 462,33; 3385,000; 1043,000;    0,000
 462,62; 3309,000; 1186,000;    0,000
 462,90; 3185,000;  886,000;    0,000
 463,19; 3588,000; 1247,000;    0,000
 463,47; 3458,000;  992,000;    0,000
 463,75; 3354,000; 1375,000;    0,000
 464,04; 3444,000; 1000,000;    0,000
 464,32; 3058,000;  832,000;    0,000
 464,61; 3542,000; 1248,000;    0,000
 464,89; 3416,000; 1101,000;    0,000
 465,17; 3765,000; 1514,000;    0,000
 465,46; 3471,000; 1159,000;    0,000
 465,74; 3095,000;  683,000;    0,000
 466,03; 3154,000;  963,000;    0,000
 466,31; 3126,000;  833,000;    0,000
 466,59; 3336,000; 1150,000;    0,000
 466,88; 3299,000;  912,000;    0,000
 467,16; 3563,000; 1179,000;    0,000
 467,44; 3377,000;  988,000;    0,000
 467,73; 3214,000;  798,000;    0,000
 468,01; 3708,000; 1138,000;    0,000
 468,30; 3553,000; 1189,000;    0,000
 468,58; 3723,000; 1308,000;    0,000
 468,86; 3218,000;  815,000;    0,000
 469,15; 3657,000; 1082,000;    0,000
 469,43; 2927,000;  674,000;    0,000
 469,71; 3506,000; 1095,000;    0,000
 470,00; 3457,000;  781,000;    0,000
 470,28; 3591,000;  800,000;    0,000
 470,56; 3612,000; 1276,000;    0,000
 470,85; 3891,000; 1232,000;    0,000
 471,13; 3564,000;  777,000;    0,000
 471,41; 3416,000;  791,000;    0,000
 471,70; 3609,000; 1107,000;    0,000
 471,98; 4272,000; 1945,000;    0,000
 472,26; 3677,000; 1105,000;    0,000
 472,55; 3492,000;  649,000;    0,000
 472,83; 3681,000;  919,000;    0,000
 473,11; 3898,000; 1236,000;    0,000
 473,40; 3857,000; 1188,000;    0,000
 473,68; 4270,000; 1407,000;    0,000
 473,96; 3707,000; 1298,000;    0,000
 474,25; 3690,000;  930,000;    0,000
 474,53; 3194,000;  845,000;    0,000
 474,81; 3610,000; 1171,000;    0,000
 475,10; 3642,000; 1097,000;    0,000
 475,38; 3869,000; 1476,000;    0,000
 475,66; 3578,000; 1098,000;    0,000
 475,94; 3743,000; 1195,000;    0,000
 476,23; 4538,000; 1903,000;    0,000
 476,51; 3677,000; 1219,000;    0,000
 476,79; 3810,000;  937,000;    0,000
 477,08; 3911,000; 1346,000;    0,000
 477,36; 3981,000; 1097,000;    0,000
 477,64; 4103,000; 1162,000;    0,000
 477,92; 4356,000; 1203,000;    0,000
 478,21; 3835,000;  647,000;    0,000
 478,49; 4361,000; 1564,000;    0,000
 478,77; 3888,000;  985,000;    0,000
 479,06; 3825,000; 1000,000;    0,000
 479,34; 3954,000;  918,000;    0,000
 479,62; 3937,000; 1015,000;    0,000
 479,90; 4274,000; 1047,000;    0,000
 480,19; 4237,000; 1490,000;    0,000
 480,47; 3974,000; 1039,000;    0,000
 480,75; 3880,000;  984,000;    0,000
 481,03; 4092,000; 1256,000;    0,000
 481,32; 3976,000; 1199,000;    0,000
 481,60; 4020,000; 1018,000;    0,000
 481,88; 4036,000; 1195,000;    0,000
 482,16; 3942,000;  869,000;    0,000
 482,45; 3913,000;  675,000;    0,000
 482,73; 4412,000; 1188,000;    0,000
 483,01; 4275,000; 1472,000;    0,000
 483,29; 3842,000; 1062,000;    0,000
 483,58; 4682,000; 1904,000;    0,000
 483,86; 4342,000; 1244,000;    0,000
 484,14; 4185,000; 1077,000;    0,000
 484,42; 4083,000; 1037,000;    0,000
 484,71; 4272,000; 1262,000;    0,000
 484,99; 4187,000; 1169,000;    0,000
 485,27; 3892,000;  885,000;    0,000
 485,55; 4250,000; 1219,000;    0,000
 485,83; 3761,000; 1028,000;    0,000
 486,12; 3998,000; 1034,000;    0,000
 486,40; 4459,000; 1328,000;    0,000
 486,68; 4446,000; 1407,000;    0,000
 486,96; 3686,000;  969,000;    0,000
 487,24; 3996,000;  967,000;    0,000
 487,53; 4082,000;  886,000;    0,000
 487,81; 4427,000; 1263,000;    0,000
 488,09; 3712,000; 1023,000;    0,000
 488,37; 4341,000; 1573,000;    0,000
 488,65; 4061,000; 1241,000;    0,000
 488,94; 4595,000; 1244,000;    0,000
 489,22; 3913,000; 1003,000;    0,000
 489,50; 4550,000; 1590,000;    0,000
 489,78; 4018,000; 1072,000;    0,000
 490,06; 4268,000; 1185,000;    0,000
 490,34; 3751,000;  807,000;    0,000
 490,63; 3994,000; 1068,000;    0,000
 490,91; 3778,000;  798,000;    0,000
 491,19; 4107,000; 1047,000;    0,000
 491,47; 4161,000; 1022,000;    0,000
 491,75; 3845,000; 1108,000;    0,000
 492,04; 3968,000; 1019,000;    0,000
 492,32; 4701,000; 1572,000;    0,000
 492,60; 4381,000; 1277,000;    0,000
 492,88; 3862,000;  546,000;    0,000
 493,16; 4300,000; 1183,000;    0,000
 493,44; 4330,000; 1190,000;    0,000
 493,72; 4352,000; 1215,000;    0,000
 494,01; 3966,000; 1253,000;    0,000
 494,29; 3708,000;  670,000;    0,000
 494,57; 3864,000;  978,000;    0,000
 494,85; 4316,000; 1096,000;    0,000
 495,13; 4160,000; 1000,000;    0,000
 495,41; 3942,000; 1100,000;    0,000
 495,69; 4218,000;  984,000;    0,000
 495,98; 4291,000; 1656,000;    0,000
 496,26; 4532,000; 1577,000;    0,000
 496,54; 3765,000;  881,000;    0,000
 496,82; 4027,000; 1181,000;    0,000
 497,10; 3730,000;  793,000;    0,000
 497,38; 4277,000; 1119,000;    0,000
 497,66; 3719,000;  570,000;    0,000
 497,94; 4064,000;  979,000;    0,000
 498,22; 3917,000; 1214,000;    0,000
 498,51; 3937,000;  931,000;    0,000
 498,79; 4506,000; 1581,000;    0,000
 499,07; 3913,000;  894,000;    0,000
 499,35; 3623,000;  727,000;    0,000
 499,63; 3898,000;  880,000;    0,000
 499,91; 4194,000; 1169,000;    0,000
 500,19; 4281,000; 1241,000;    0,000
 500,47; 3866,000;  728,000;    0,000
 500,75; 4323,000; 1050,000;    0,000
 501,03; 4302,000; 1307,000;    0,000
 501,31; 4255,000; 1267,000;    0,000
 501,60; 4410,000; 1486,000;    0,000
 501,88; 3977,000;  881,000;    0,000
 502,16; 4295,000; 1204,000;    0,000
 502,44; 4313,000; 1392,000;    0,000
 502,72; 3943,000; 1057,000;    0,000
 503,00; 4353,000; 1416,000;    0,000
 503,28; 3654,000;  914,000;    0,000
 503,56; 3861,000;  821,000;    0,000
 503,84; 3950,000; 1049,000;    0,000
 504,12; 4441,000; 1353,000;    0,000
 504,40; 3750,000; 1011,000;    0,000
 504,68; 3603,000;  800,000;    0,000
 504,96; 3770,000;  796,000;    0,000
 505,24; 4553,000; 1769,000;    0,000
 505,52; 3832,000; 1142,000;    0,000
 505,80; 4115,000; 1290,000;    0,000
 506,08; 3877,000; 1035,000;    0,000
 506,36; 4255,000; 1397,000;    0,000
 506,65; 3976,000; 1388,000;    0,000
 506,93; 4338,000; 1568,000;    0,000
 507,21; 3841,000; 1160,000;    0,000
 507,49; 4070,000; 1362,000;    0,000
 507,77; 3851,000; 1248,000;    0,000
 508,05; 4096,000; 1345,000;    0,000
 508,33; 3914,000; 1441,000;    0,000
 508,61; 4120,000; 1199,000;    0,000
 508,89; 4000,000; 1634,000;    0,000
 509,17; 3667,000; 1345,000;    0,000
 509,45; 3741,000; 1494,000;    0,000
 509,73; 3423,000; 1355,000;    0,000
 510,01; 3957,000; 1561,000;    0,000
 510,29; 3964,000; 1762,000;    0,000
 510,57; 3877,000; 1536,000;    0,000
 510,85; 4266,000; 1862,000;    0,000
 511,13; 3893,000; 1795,000;    0,000
 511,41; 4180,000; 1925,000;    0,000
 511,69; 4001,000; 2082,000;    0,000
 511,97; 4078,000; 2019,000;    0,000
 512,25; 3870,000; 2184,000;    0,000
 512,53; 3920,000; 1794,000;    0,000
 512,81; 3905,000; 2290,000;    0,000
 513,09; 4206,000; 2336,000;    0,000
 513,37; 3564,000; 1747,000;    0,000
 513,65; 4133,000; 2511,000;    0,000
 513,93; 3989,000; 2228,000;    0,000
 514,21; 4204,000; 2416,000;    0,000
 514,48; 3828,000; 2059,000;    0,000
 514,76; 4294,000; 2942,000;    0,000
 515,04; 3892,000; 2545,000;    0,000
 515,32; 4586,000; 3095,000;    0,000
 515,60; 3761,000; 2559,000;    0,000
 515,88; 4200,000; 3136,000;    0,000
 516,16; 3940,000; 2606,000;    0,000
 516,44; 4208,000; 3081,000;    0,000
 516,72; 4000,000; 3141,000;    0,000
 517,00; 4678,000; 3828,000;    0,000
 517,28; 3905,000; 3197,000;    0,000
 517,56; 4176,000; 3820,000;    0,000
 517,84; 4015,000; 3676,000;    0,000
 518,12; 4278,000; 3803,000;    0,000
 518,40; 3766,000; 3627,000;    0,000
 518,68; 3992,000; 3749,000;    0,000
 518,96; 4259,000; 3771,000;    0,000
 519,23; 4735,000; 4397,000;    0,000
 519,51; 4656,000; 4469,000;    0,000
 519,79; 4713,000; 4456,000;    0,000
 520,07; 4995,000; 5776,000;    0,000
 520,35; 4423,000; 4760,000;    0,000
 520,63; 4543,000; 5546,000;    0,000
 520,91; 4462,000; 5251,000;    0,000
 521,19; 4468,000; 5085,000;    0,000
 521,47; 4525,000; 5583,000;    0,000
 521,75; 4239,000; 5677,000;    0,000
 522,03; 4875,000; 5938,000;    0,000
 522,30; 4566,000; 6007,000;    0,000
 522,58; 4376,000; 5977,000;    0,000
 522,86; 4380,000; 6549,000;    0,000
 523,14; 4585,000; 6339,000;    0,000
 523,42; 4217,000; 6334,000;    0,000
 523,70; 5003,000; 6814,000;    0,000
 523,98; 4833,000; 7436,000;    0,000
 524,26; 4658,000; 7677,000;    0,000
 524,54; 5334,000; 8267,000;    0,000
 524,81; 4930,000; 8256,000;    0,000
 525,09; 4877,000; 8178,000;    0,000
 525,37; 4378,000; 7717,000;    0,000
 525,65; 4684,000; 8142,000;    0,000
 525,93; 5387,000; 8888,000;    0,000
 526,21; 4934,000; 8987,000;    0,000
 526,49; 4952,000; 9278,000;    0,000
 526,76; 4584,000; 9214,000;    0,000
 527,04; 4896,000; 9938,000;    0,000
 527,32; 4597,000; 9701,000;    0,000
 527,60; 4911,000;10536,000;    0,000
 527,88; 4733,000;10248,000;    0,000
 528,16; 5196,000;10856,000;    0,000
 528,44; 4869,000;11050,000;    0,000
 528,71; 5238,000;11907,000;    0,000
 528,99; 4833,000;11363,000;    0,000
 529,27; 4936,000;11647,000;    0,000
 529,55; 5025,000;12481,000;    0,000
 529,83; 5864,000;12964,000;    0,000
 530,11; 5438,000;13649,000;    0,000
 530,38; 5242,000;13582,000;    0,000
 530,66; 5419,000;13373,000;    0,000
 530,94; 5162,000;13937,000;    0,000
 531,22; 5723,000;14921,000;    0,000
 531,50; 5767,000;15401,000;    0,000
 531,77; 5534,000;15630,000;    0,000
 532,05; 5959,000;15619,000;    0,000
 532,33; 5308,000;15592,000;    0,000
 532,61; 5427,000;15765,000;    0,000
 532,89; 6153,000;17278,000;    0,000
 533,16; 5921,000;17114,000;    0,000
 533,44; 5745,000;17187,000;    0,000
 533,72; 5928,000;18127,000;    0,000
 534,00; 5673,000;18238,000;    0,000
 534,28; 5892,000;18714,000;    0,000
 534,55; 6076,000;18950,000;    0,000
 534,83; 6442,000;19930,000;    0,000
 535,11; 6825,000;20731,000;    0,000
 535,39; 6372,000;21072,000;    0,000
 535,66; 5947,000;21072,000;    0,000
 535,94; 6204,000;21364,000;    0,000
 536,22; 6502,000;21940,000;    0,000
 536,50; 6234,000;22480,000;    0,000
 536,78; 6511,000;22709,000;    0,000
 537,05; 6971,000;23687,000;    0,000
 537,33; 6233,000;23579,000;    0,000
 537,61; 6333,000;24523,000;    0,000
 537,89; 6328,000;25001,000;    0,000
 538,16; 6865,000;25281,000;    0,000
 538,44; 6733,000;25983,000;    0,000
 538,72; 6670,000;27302,000;    0,000
 539,00; 7168,000;26819,000;    0,000
 539,27; 7186,000;28171,000;    0,000
 539,55; 6932,000;28236,000;    0,000
 539,83; 6804,000;29092,000;    0,000
 540,11; 6870,000;28720,000;    0,000
 540,38; 7756,000;30618,000;    0,000
 540,66; 7272,000;31415,000;    0,000
 540,94; 7418,000;30709,000;    0,000
 541,21; 7409,000;31581,000;    0,000
 541,49; 6939,000;31463,000;    0,000
 541,77; 7653,000;32646,000;    0,000
 542,05; 7892,000;33736,000;    0,000
 542,32; 7514,000;34120,000;    0,000
 542,60; 8212,000;35301,000;    0,000
 542,88; 7771,000;35213,000;    0,000
 543,15; 8070,000;35794,000;    0,000
 543,43; 7959,000;36443,000;    0,000
 543,71; 8203,000;37173,000;    0,000
 543,98; 8137,000;37700,000;    0,000
 544,26; 8273,000;38589,000;    0,000
 544,54; 8682,000;39366,000;    0,000
 544,82; 8477,000;39588,000;    0,000
 545,09; 8427,000;40032,000;    0,000
 545,37; 8210,000;40831,000;    0,000
 545,65; 8350,000;41062,000;    0,000
 545,92; 8363,000;41476,000;    0,000
 546,20; 8352,000;41717,000;    0,000
 546,48; 9143,000;42987,000;    0,000
 546,75; 9520,000;43555,000;    0,000
 547,03; 8939,000;43568,000;    0,000
 547,31; 9181,000;44163,000;    0,000
 547,58; 9140,000;44851,000;    0,000
 547,86; 9151,000;45553,000;    0,000
 548,14; 9292,000;46050,000;    0,000
 548,41; 9067,000;47173,000;    0,000
 548,69; 9780,000;47310,000;    0,000
 548,97; 9431,000;47961,000;    0,000
 549,24; 9267,000;48039,000;    0,000
 549,52;10267,000;49120,000;    0,000
 549,80; 9753,000;49063,000;    0,000
 550,07; 9747,000;49890,000;    0,000
 550,35;10179,000;49777,000;    0,000
 550,62;10043,000;50421,000;    0,000
 550,90;10289,000;51281,000;    0,000
 551,18;10304,000;51315,000;    0,000
 551,45;10207,000;52820,000;    0,000
 551,73; 9989,000;52194,000;    0,000
 552,01;10625,000;53145,000;    0,000
 552,28;10706,000;53432,000;    0,000
 552,56;10978,000;53936,000;    0,000
 552,83;10937,000;53919,000;    0,000
 553,11;11204,000;54790,000;    0,000
 553,39;12040,000;56254,000;    0,000
 553,66;11103,000;55547,000;    0,000
 553,94;11094,000;54985,000;    0,000
 554,22;11324,000;56210,000;    0,000
 554,49;11647,000;55416,000;    0,000
 554,77;12058,000;56724,000;    0,000
 555,04;12019,000;56291,000;    0,000
 555,32;11437,000;56725,000;    0,000
 555,59;12003,000;57306,000;    0,000
 555,87;12571,000;57517,000;    0,000
 556,15;12310,000;57863,000;    0,000
 556,42;12729,000;57232,000;    0,000
 556,70;12532,000;57520,000;    0,000
 556,97;12315,000;57942,000;    0,000
 557,25;12525,000;57428,000;    0,000
 557,53;12793,000;58122,000;    0,000
 557,80;13070,000;57741,000;    0,000
 558,08;13434,000;58813,000;    0,000
 558,35;12803,000;58584,000;    0,000
 558,63;13858,000;58539,000;    0,000
 558,90;14018,000;58924,000;    0,000
 559,18;13861,000;58423,000;    0,000
 559,45;14226,000;58098,000;    0,000
 559,73;14635,000;58663,000;    0,000
 560,01;14514,000;59019,000;    0,000
 560,28;14259,000;58261,000;    0,000
 560,56;14526,000;59041,000;    0,000
 560,83;15763,000;58234,000;    0,000
 561,11;15015,000;58589,000;    0,000
 561,38;15183,000;58484,000;    0,000
 561,66;15801,000;58334,000;    0,000
 561,93;15737,000;57989,000;    0,000
 562,21;15753,000;57480,000;    0,000
 562,48;16231,000;58567,000;    0,000
 562,76;16641,000;58147,000;    0,000
 563,03;16582,000;57790,000;    0,000
 563,31;17378,000;58248,000;    0,000
 563,58;16954,000;57371,000;    0,000
 563,86;16995,000;56991,000;    0,000
 564,13;17786,000;57768,000;    0,000
 564,41;17728,000;56078,000;    0,000
 564,68;17667,000;55889,000;    0,000
 564,96;17700,000;55503,000;    0,000
 565,23;18835,000;56270,000;    0,000
 565,51;18616,000;54991,000;    0,000
 565,78;18990,000;55314,000;    0,000
 566,06;18853,000;54666,000;    0,000
 566,33;19698,000;55070,000;    0,000
 566,61;19975,000;54876,000;    0,000
 566,88;19578,000;54222,000;    0,000
 567,16;20982,000;53574,000;    0,000
 567,43;20522,000;53802,000;    0,000
 567,71;20352,000;52192,000;    0,000
 567,98;20567,000;52451,000;    0,000
 568,26;21440,000;51768,000;    0,000
 568,53;22175,000;51500,000;    0,000
 568,81;22330,000;51300,000;    0,000
 569,08;22002,000;49963,000;    0,000
 569,36;22179,000;49381,000;    0,000
 569,63;22678,000;49107,000;    0,000
 569,91;23205,000;48993,000;    0,000
 570,18;23695,000;48793,000;    0,000
 570,45;23818,000;48175,000;    0,000
 570,73;24393,000;47853,000;    0,000
 571,00;24338,000;46915,000;    0,000
 571,28;25380,000;46313,000;    0,000
 571,55;25145,000;47116,000;    0,000
 571,83;26173,000;46390,000;    0,000
 572,10;26112,000;45600,000;    0,000
 572,38;26357,000;45434,000;    0,000
 572,65;26081,000;44038,000;    0,000
 572,92;27098,000;43897,000;    0,000
 573,20;27684,000;43456,000;    0,000
 573,47;28176,000;42643,000;    0,000
 573,75;28450,000;41350,000;    0,000
 574,02;28826,000;41856,000;    0,000
 574,29;28818,000;41610,000;    0,000
 574,57;29740,000;39789,000;    0,000
 574,84;29575,000;40617,000;    0,000
 575,12;30177,000;39762,000;    0,000
 575,39;30258,000;39221,000;    0,000
 575,66;31123,000;38302,000;    0,000
 575,94;31467,000;38208,000;    0,000
 576,21;31829,000;36707,000;    0,000
 576,49;32896,000;37170,000;    0,000
 576,76;32917,000;36167,000;    0,000
 577,03;32987,000;35080,000;    0,000
 577,31;33197,000;35565,000;    0,000
 577,58;34642,000;34755,000;    0,000
 577,86;34748,000;34410,000;    0,000
 578,13;34672,000;33671,000;    0,000
 578,40;35997,000;34099,000;    0,000
 578,68;35666,000;32372,000;    0,000
 578,95;37217,000;32100,000;    0,000
 579,22;37703,000;32474,000;    0,000
 579,50;37672,000;30908,000;    0,000
 579,77;37576,000;30321,000;    0,000
 580,05;38137,000;30637,000;    0,000
 580,32;38682,000;29683,000;    0,000
 580,59;39173,000;29998,000;    0,000
 580,87;40585,000;28549,000;    0,000
 581,14;40280,000;28457,000;    0,000
 581,41;40890,000;27574,000;    0,000
 581,69;41241,000;27204,000;    0,000
 581,96;41500,000;27366,000;    0,000
 582,23;43144,000;26801,000;    0,000
 582,51;42569,000;26236,000;    0,000
 582,78;44215,000;26658,000;    0,000
 583,05;44020,000;24697,000;    0,000
 583,33;44250,000;24742,000;    0,000
 583,60;45105,000;23914,000;    0,000
 583,87;45638,000;23819,000;    0,000
 584,15;46331,000;24000,000;    0,000
 584,42;46664,000;22679,000;    0,000
 584,69;46890,000;23158,000;    0,000
 584,96;47610,000;21252,000;    0,000
 585,24;48124,000;21659,000;    0,000
 585,51;48869,000;20901,000;    0,000
 585,78;48739,000;20193,000;    0,000
 586,06;49227,000;20858,000;    0,000
 586,33;49354,000;20471,000;    0,000
 586,60;50386,000;19536,000;    0,000
 586,88;50046,000;19434,000;    0,000
 587,15;51557,000;19385,000;    0,000
 587,42;51517,000;18312,000;    0,000
 587,69;52349,000;18042,000;    0,000
 587,97;53332,000;18361,000;    0,000
 588,24;54069,000;18130,000;    0,000
 588,51;53446,000;17276,000;    0,000
 588,79;53684,000;17153,000;    0,000
 589,06;54180,000;16922,000;    0,000
 589,33;55046,000;16123,000;    0,000
 589,60;54768,000;16020,000;    0,000
 589,88;55561,000;16053,000;    0,000
 590,15;56609,000;16054,000;    0,000
 590,42;56856,000;15120,000;    0,000
 590,69;57324,000;14831,000;    0,000
 590,97;57376,000;14593,000;    0,000
 591,24;57528,000;13726,000;    0,000
 591,51;59124,000;13986,000;    0,000
 591,78;57977,000;13757,000;    0,000
 592,06;58476,000;13626,000;    0,000
 592,33;58801,000;12484,000;    0,000
 592,60;60896,000;13090,000;    0,000
 592,87;58923,000;11836,000;    0,000
 593,15;59428,000;12677,000;    0,000
 593,42;60555,000;12896,000;    0,000
 593,69;61272,000;12169,000;    0,000
 593,96;60819,000;11386,000;    0,000
 594,23;61873,000;12067,000;    0,000
 594,51;60989,000;10434,000;    0,000
 594,78;61923,000;11027,000;    0,000
 595,05;62247,000;10304,000;    0,000
 595,32;62647,000;10810,000;    0,000
 595,59;62892,000;10055,000;    0,000
 595,87;62258,000; 9682,000;    0,000
 596,14;62563,000; 9587,000;    0,000
 596,41;62823,000; 9953,000;    0,000
 596,68;62971,000; 8896,000;    0,000
 596,95;63888,000; 9110,000;    0,000
 597,23;63376,000; 8842,000;    0,000
 597,50;63771,000; 8770,000;    0,000
 597,77;63753,000; 9422,000;    0,000
 598,04;63635,000; 8385,000;    0,000
 598,31;63753,000; 8634,000;    0,000
 598,59;63680,000; 8264,000;    0,000
 598,86;63753,000; 8246,000;    0,000
 599,13;63900,000; 7076,000;    0,000
 599,40;63753,000; 8034,000;    0,000
 599,67;63900,000; 7332,000;    0,000
 599,94;63753,000; 6949,000;    0,000
 600,22;63900,000; 7394,000;    0,000
 600,49;63753,000; 6533,000;    0,000
 600,76;63900,000; 6472,000;    0,000
 601,03;63753,000; 6293,000;    0,000
 601,30;63771,000; 6445,000;    0,000
 601,57;63565,000; 6366,000;    0,000
 601,84;63804,000; 7195,000;    0,000
 602,12;63753,000; 5817,000;    0,000
 602,39;63560,000; 6101,000;    0,000
 602,66;63753,000; 6090,000;    0,000
 602,93;63442,000; 5922,000;    0,000
 603,20;63753,000; 5601,000;    0,000
 603,47;63009,000; 5407,000;    0,000
 603,74;62981,000; 5064,000;    0,000
 604,02;63356,000; 5534,000;    0,000
 604,29;62508,000; 5308,000;    0,000
 604,56;61948,000; 4531,000;    0,000
 604,83;61730,000; 4773,000;    0,000
 605,10;62816,000; 4687,000;    0,000
 605,37;61615,000; 4610,000;    0,000
 605,64;61568,000; 4767,000;    0,000
 605,91;60171,000; 4597,000;    0,000
 606,18;60501,000; 4053,000;    0,000
 606,45;59747,000; 3789,000;    0,000
 606,73;60003,000; 4230,000;    0,000
 607,00;59753,000; 3867,000;    0,000
 607,27;59551,000; 3567,000;    0,000
 607,54;58542,000; 3926,000;    0,000
 607,81;58519,000; 4069,000;    0,000
 608,08;57887,000; 3474,000;    0,000
 608,35;58156,000; 3754,000;    0,000
 608,62;56657,000; 3243,000;    0,000
 608,89;56567,000; 3472,000;    0,000
 609,16;56405,000; 3722,000;    0,000
 609,43;56221,000; 4008,000;    0,000
 609,70;55643,000; 3498,000;    0,000
 609,97;55108,000; 2796,000;    0,000
 610,25;53659,000; 3105,000;    0,000
 610,52;52492,000; 2654,000;    0,000
 610,79;52422,000; 2499,000;    0,000
 611,06;52463,000; 2850,000;    0,000
 611,33;51871,000; 2639,000;    0,000
 611,60;51825,000; 3033,000;    0,000
 611,87;50899,000; 2552,000;    0,000
 612,14;50615,000; 2518,000;    0,000
 612,41;49599,000; 2304,000;    0,000
 612,68;48725,000; 2528,000;    0,000
 612,95;47782,000; 2372,000;    0,000
 613,22;48901,000; 2973,000;    0,000
 613,49;46743,000; 2096,000;    0,000
 613,76;46571,000; 2197,000;    0,000
 614,03;45050,000; 1919,000;    0,000
 614,30;45625,000; 2609,000;    0,000
 614,57;44940,000; 2096,000;    0,000
 614,84;44173,000; 2063,000;    0,000
 615,11;43001,000; 2084,000;    0,000
 615,38;43137,000; 2004,000;    0,000
 615,65;42062,000; 2186,000;    0,000
 615,92;41728,000; 1951,000;    0,000
 616,19;41412,000; 2017,000;    0,000
 616,46;40466,000; 1909,000;    0,000
 616,73;39330,000; 2099,000;    0,000
 617,00;39341,000; 2336,000;    0,000
 617,27;39079,000; 2001,000;    0,000
 617,54;38048,000; 2021,000;    0,000
 617,81;37042,000; 1678,000;    0,000
 618,08;37109,000; 1770,000;    0,000
 618,35;36376,000; 1531,000;    0,000
 618,62;35679,000; 2073,000;    0,000
 618,89;34827,000; 1594,000;    0,000
 619,16;34407,000; 1172,000;    0,000
 619,43;32696,000; 1380,000;    0,000
 619,70;32634,000; 1268,000;    0,000
 619,97;32413,000; 1776,000;    0,000
 620,24;32107,000; 2004,000;    0,000
 620,51;31609,000; 1163,000;    0,000
 620,78;30860,000; 1283,000;    0,000
 621,05;30358,000; 1443,000;    0,000
 621,32;30078,000; 1453,000;    0,000
 621,59;28977,000; 1243,000;    0,000
 621,86;29248,000; 1914,000;    0,000
 622,12;28519,000; 1961,000;    0,000
 622,39;27835,000; 1446,000;    0,000
 622,66;27178,000; 1118,000;    0,000
 622,93;26694,000;  870,000;    0,000
 623,20;26173,000;  946,000;    0,000
 623,47;25417,000;  905,000;    0,000
 623,74;24873,000; 1014,000;    0,000
 624,01;24155,000;  852,000;    0,000
 624,28;24000,000; 1048,000;    0,000
 624,55;23494,000;  806,000;    0,000
 624,82;22892,000;  956,000;    0,000
 625,09;22948,000;  988,000;    0,000
 625,36;22237,000; 1091,000;    0,000
 625,62;22644,000; 1283,000;    0,000
 625,89;21292,000;  764,000;    0,000
 626,16;20928,000;  833,000;    0,000
 626,43;20599,000;  803,000;    0,000
 626,70;20508,000; 1198,000;    0,000
 626,97;19415,000;  847,000;    0,000
 627,24;19874,000;  973,000;    0,000
 627,51;18733,000;  442,000;    0,000
 627,78;18765,000;  638,000;    0,000
 628,04;18581,000; 1074,000;    0,000
 628,31;17951,000;  742,000;    0,000
 628,58;17918,000; 1304,000;    0,000
 628,85;17156,000;  472,000;    0,000
 629,12;17132,000;  904,000;    0,000
 629,39;16844,000;  622,000;    0,000
 629,66;16751,000; 1332,000;    0,000
 629,93;16287,000;  831,000;    0,000
 630,19;15347,000;  403,000;    0,000
 630,46;15686,000;  525,000;    0,000
 630,73;15197,000;  700,000;    0,000
 631,00;15283,000;  693,000;    0,000
 631,27;14155,000;  737,000;    0,000
 631,54;14303,000;  414,000;    0,000
 631,80;14276,000;  548,000;    0,000
 632,07;13652,000;  401,000;    0,000
 632,34;13591,000;  558,000;    0,000
 632,61;13251,000;  543,000;    0,000
 632,88;12931,000;  392,000;    0,000
 633,15;13004,000;  565,000;    0,000
 633,41;12881,000;  736,000;    0,000
 633,68;12255,000;  626,000;    0,000
 633,95;12155,000;  433,000;    0,000
 634,22;11983,000;  353,000;    0,000
 634,49;11057,000;  326,000;    0,000
 634,76;12124,000; 1167,000;    0,000
 635,02;11237,000;  446,000;    0,000
 635,29;11333,000;  567,000;    0,000
 635,56;11059,000;  464,000;    0,000
 635,83;11092,000;  898,000;    0,000
 636,10;10039,000;  233,000;    0,000
 636,36;10516,000;  724,000;    0,000
 636,63; 9628,000;  301,000;    0,000
 636,90;10069,000;  773,000;    0,000
 637,17; 9717,000;  230,000;    0,000
 637,43; 9431,000;  199,000;    0,000
 637,70;10181,000; 1135,000;    0,000
 637,97;10194,000; 1259,000;    0,000
 638,24; 9654,000;  972,000;    0,000
 638,51; 9076,000;  246,000;    0,000
 638,77; 8731,000;  531,000;    0,000
 639,04; 9618,000;  866,000;    0,000
 639,31; 8572,000;  393,000;    0,000
 639,58; 8897,000;  471,000;    0,000
 639,84; 8635,000;  582,000;    0,000
 640,11; 8479,000;  368,000;    0,000
 640,38; 8240,000;  368,000;    0,000
 640,65; 8714,000;  985,000;    0,000
 640,91; 8244,000;  609,000;    0,000
 641,18; 8109,000;  484,000;    0,000
 641,45; 8431,000;  993,000;    0,000
 641,72; 7920,000;  773,000;    0,000
 641,98; 7776,000;  528,000;    0,000
 642,25; 7698,000;  569,000;    0,000
 642,52; 7652,000;  531,000;    0,000
 642,78; 7303,000;  279,000;    0,000
 643,05; 7389,000;  602,000;    0,000
 643,32; 7712,000;  669,000;    0,000
 643,59; 6866,000;  244,000;    0,000
 643,85; 7294,000;  476,000;    0,000
 644,12; 7211,000;  653,000;    0,000
 644,39; 7060,000;  258,000;    0,000
 644,65; 6849,000;  538,000;    0,000
 644,92; 6855,000;  235,000;    0,000
 645,19; 7020,000;  519,000;    0,000
 645,46; 6879,000;  703,000;    0,000
 645,72; 6633,000;  644,000;    0,000
 645,99; 6840,000;  598,000;    0,000
 646,26; 6383,000;  113,000;    0,000
 646,52; 7056,000;  574,000;    0,000
 646,79; 6049,000;  217,000;    0,000
 647,06; 6622,000;  653,000;    0,000
 647,32; 6493,000;  466,000;    0,000
 647,59; 6859,000; 1007,000;    0,000
 647,86; 6975,000; 1024,000;    0,000
 648,12; 6608,000;  547,000;    0,000
 648,39; 6108,000;  604,000;    0,000
 648,66; 6428,000;  578,000;    0,000
 648,92; 5627,000;  237,000;    0,000
 649,19; 6787,000; 1025,000;    0,000
 649,46; 6015,000;  341,000;    0,000
 649,72; 6538,000; 1007,000;    0,000
 649,99; 5855,000;  402,000;    0,000
 650,26; 6357,000;  611,000;    0,000
 650,52; 6263,000;  806,000;    0,000
 650,79; 6213,000;  453,000;    0,000
 651,06; 6564,000;  849,000;    0,000
 651,32; 6115,000;  392,000;    0,000
 651,59; 5460,000;   85,000;    0,000
 651,85; 5907,000;  526,000;    0,000
 652,12; 5838,000;  424,000;    0,000
 652,39; 5992,000;  519,000;    0,000
 652,65; 5689,000;  579,000;    0,000
 652,92; 6300,000;  967,000;    0,000
 653,19; 6245,000;  852,000;    0,000
 653,45; 6199,000;  677,000;    0,000
 653,72; 5929,000;  659,000;    0,000
 653,98; 5892,000;  756,000;    0,000
 654,25; 6121,000; 1337,000;    0,000
 654,52; 6318,000; 1223,000;    0,000
 654,78; 6035,000; 1032,000;    0,000
 655,05; 6128,000; 1120,000;    0,000
 655,31; 6523,000; 1275,000;    0,000
 655,58; 6004,000;  761,000;    0,000
 655,85; 5814,000;  681,000;    0,000
 656,11; 5695,000;  613,000;    0,000
 656,38; 5841,000;  611,000;    0,000
 656,64; 5763,000;  542,000;    0,000
 656,91; 6423,000; 1120,000;    0,000
 657,18; 5505,000;  571,000;    0,000
 657,44; 5603,000;  482,000;    0,000
 657,71; 5704,000;  432,000;    0,000
 657,97; 5759,000;  608,000;    0,000
 658,24; 6335,000; 1125,000;    0,000
 658,50; 6272,000;  853,000;    0,000
 658,77; 6129,000; 1054,000;    0,000
 659,03; 6021,000;  777,000;    0,000
 659,30; 6447,000; 1209,000;    0,000
 659,57; 6097,000;  562,000;    0,000
 659,83; 6080,000;  573,000;    0,000
 660,10; 5872,000;  994,000;    0,000
 660,36; 6234,000;  747,000;    0,000
 660,63; 5967,000;  836,000;    0,000
 660,89; 6220,000;  582,000;    0,000
 661,16; 6273,000;  894,000;    0,000
 661,42; 6518,000; 1012,000;    0,000
 661,69; 5986,000;  841,000;    0,000
 661,95; 6453,000;  733,000;    0,000
 662,22; 5885,000;  612,000;    0,000
 662,48; 6638,000; 1048,000;    0,000
 662,75; 6094,000;  855,000;    0,000
 663,01; 6605,000; 1107,000;    0,000
 663,28; 6174,000;  972,000;    0,000
 663,54; 6526,000; 1025,000;    0,000
 663,81; 6504,000; 1005,000;    0,000
 664,07; 6937,000; 1194,000;    0,000
 664,34; 6852,000; 1365,000;    0,000
 664,60; 8475,000; 3039,000;    0,000
 664,87; 6648,000;  894,000;    0,000
 665,13; 6968,000; 1071,000;    0,000
 665,40; 6762,000;  944,000;    0,000
 665,66; 6588,000;  763,000;    0,000
 665,93; 6405,000;  933,000;    0,000
 666,19; 7418,000; 1824,000;    0,000
 666,46; 7411,000; 1375,000;    0,000
 666,72; 7023,000; 1385,000;    0,000
 666,99; 6523,000;  655,000;    0,000
 667,25; 6888,000; 1129,000;    0,000
 667,52; 6798,000; 1091,000;    0,000
 667,78; 6941,000;  762,000;    0,000
 668,05; 7187,000; 1344,000;    0,000
 668,31; 7283,000; 1198,000;    0,000
 668,57; 6869,000; 1416,000;    0,000
 668,84; 7337,000; 1686,000;    0,000
 669,10; 7336,000; 1348,000;    0,000
 669,37; 7103,000; 1169,000;    0,000
 669,63; 7075,000; 1048,000;    0,000
 669,90; 6860,000;  943,000;    0,000
 670,16; 7574,000; 1442,000;    0,000
 670,43; 7344,000; 1157,000;    0,000
 670,69; 7767,000; 1800,000;    0,000
 670,95; 7643,000;  993,000;    0,000
 671,22; 6899,000; 1113,000;    0,000
 671,48; 7771,000; 1256,000;    0,000
 671,75; 7521,000; 1396,000;    0,000
 672,01; 7623,000; 1173,000;    0,000
 672,28; 7015,000; 1042,000;    0,000
 672,54; 7047,000; 1051,000;    0,000
 672,80; 7569,000; 1603,000;    0,000
 673,07; 7610,000; 1241,000;    0,000
 673,33; 7495,000; 1100,000;    0,000
 673,60; 7615,000; 1222,000;    0,000
 673,86; 7407,000; 1331,000;    0,000
 674,12; 7638,000; 1454,000;    0,000
 674,39; 7898,000; 1786,000;    0,000
 674,65; 7743,000; 1363,000;    0,000
 674,91; 7549,000; 1258,000;    0,000
 675,18; 7527,000; 1120,000;    0,000
 675,44; 7928,000; 1654,000;    0,000
 675,71; 7703,000; 1314,000;    0,000
 675,97; 8007,000; 1213,000;    0,000
 676,23; 7926,000; 1344,000;    0,000
 676,50; 7591,000; 1081,000;    0,000
 676,76; 8230,000; 1286,000;    0,000
 677,02; 7703,000;  986,000;    0,000
 677,29; 8049,000; 1389,000;    0,000
 677,55; 8004,000; 1243,000;    0,000
 677,81; 8221,000; 1367,000;    0,000
 678,08; 8082,000; 1174,000;    0,000
 678,34; 8719,000; 1622,000;    0,000
 678,61; 8280,000; 1064,000;    0,000
 678,87; 8180,000; 1382,000;    0,000
 679,13; 8162,000;  957,000;    0,000
 679,40; 8475,000; 1342,000;    0,000
 679,66; 7933,000; 1264,000;    0,000
 679,92; 8360,000; 1195,000;    0,000
 680,18; 8179,000; 1392,000;    0,000
 680,45; 8381,000; 1463,000;    0,000
 680,71; 8059,000; 1208,000;    0,000
 680,97; 8274,000;  967,000;    0,000
 681,24; 8469,000; 1171,000;    0,000
 681,50; 9339,000; 2081,000;    0,000
 681,76; 8742,000; 1433,000;    0,000
 682,03; 8513,000; 1431,000;    0,000
 682,29; 8210,000; 1003,000;    0,000
 682,55; 8476,000; 1444,000;    0,000
 682,82; 8645,000; 1362,000;    0,000
 683,08; 8947,000; 1591,000;    0,000
 683,34; 8714,000; 1237,000;    0,000
 683,60; 8835,000; 1512,000;    0,000
 683,87; 8501,000; 1557,000;    0,000
 684,13; 9268,000; 1734,000;    0,000
 684,39; 8683,000; 1433,000;    0,000
 684,66; 9209,000; 1789,000;    0,000
 684,92; 8651,000; 1443,000;    0,000
 685,18; 8564,000; 1331,000;    0,000
 685,44; 9053,000; 1762,000;    0,000
 685,71; 8845,000; 1505,000;    0,000
 685,97; 8674,000; 1726,000;    0,000
 686,23; 8945,000; 1438,000;    0,000
 686,49; 8563,000; 1381,000;    0,000
 686,76; 8576,000; 1258,000;    0,000
 687,02; 8670,000; 1354,000;    0,000
 687,28; 8861,000; 1184,000;    0,000
 687,54; 8892,000; 1316,000;    0,000
 687,81; 9149,000; 1455,000;    0,000
 688,07; 8643,000; 1284,000;    0,000
 688,33; 8693,000; 1114,000;    0,000
 688,59; 9134,000; 1583,000;    0,000
 688,86; 9090,000; 1763,000;    0,000
 689,12; 8958,000; 1357,000;    0,000
 689,38; 9519,000; 1347,000;    0,000
 689,64; 8808,000; 1388,000;    0,000
 689,90; 9157,000; 1672,000;    0,000
 690,17; 9326,000; 1853,000;    0,000
 690,43; 9585,000; 1303,000;    0,000
 690,69; 9207,000; 1241,000;    0,000
 690,95; 9874,000; 1533,000;    0,000
 691,22; 9882,000; 1789,000;    0,000
 691,48; 9675,000; 1537,000;    0,000
 691,74; 9698,000; 1387,000;    0,000
 692,00; 9913,000; 1457,000;    0,000
 692,26;10144,000; 1682,000;    0,000
 692,52;10345,000; 1789,000;    0,000
 692,79; 9933,000; 1496,000;    0,000
 693,05;10399,000; 1482,000;    0,000
 693,31;10196,000; 1702,000;    0,000
 693,57;10216,000; 1672,000;    0,000
 693,83; 9824,000; 1460,000;    0,000
 694,10;10534,000; 1659,000;    0,000
 694,36;10365,000; 1882,000;    0,000
 694,62; 9980,000; 1458,000;    0,000
 694,88;10617,000; 1651,000;    0,000
 695,14;10514,000; 2099,000;    0,000
 695,40; 9986,000; 1553,000;    0,000
 695,67;10268,000; 1466,000;    0,000
 695,93;11071,000; 2628,000;    0,000
 696,19;10678,000; 2034,000;    0,000
 696,45;10120,000; 1813,000;    0,000
 696,71;10971,000; 2091,000;    0,000
 696,97;10349,000; 1504,000;    0,000
 697,23;10697,000; 1991,000;    0,000
 697,49;10284,000; 1660,000;    0,000
 697,76;10612,000; 1647,000;    0,000
 698,02;10633,000; 1849,000;    0,000
 698,28;10264,000; 1553,000;    0,000
 698,54;10530,000; 1759,000;    0,000
 698,80;10528,000; 1653,000;    0,000
 699,06;10719,000; 1805,000;    0,000
 699,32;10848,000; 1869,000;    0,000
 699,58;10953,000; 1498,000;    0,000
 699,85;10545,000; 1916,000;    0,000
 700,11;10381,000; 1494,000;    0,000
 700,37;10639,000; 1647,000;    0,000
 700,63;11403,000; 1990,000;    0,000
 700,89;11266,000; 1968,000;    0,000
 701,15;11326,000; 1943,000;    0,000
 701,41;11772,000; 1854,000;    0,000
 701,67;11449,000; 1617,000;    0,000
 701,93;11891,000; 1936,000;    0,000
 702,19;11696,000; 1895,000;    0,000
 702,45;12133,000; 1770,000;    0,000
 702,72;11639,000; 2182,000;    0,000
 702,98;12390,000; 2353,000;    0,000
 703,24;11701,000; 1777,000;    0,000
 703,50;11788,000; 2402,000;    0,000
 703,76;11998,000; 1928,000;    0,000
 704,02;12403,000; 2276,000;    0,000
 704,28;12222,000; 1610,000;    0,000
 704,54;12068,000; 2275,000;    0,000
 704,80;11847,000; 1726,000;    0,000
 705,06;12549,000; 2129,000;    0,000
 705,32;11813,000; 1853,000;    0,000
 705,58;12183,000; 2226,000;    0,000
 705,84;12281,000; 1865,000;    0,000
 706,10;12699,000; 2312,000;    0,000
 706,36;13008,000; 2994,000;    0,000
 706,62;12586,000; 2603,000;    0,000
 706,88;12059,000; 1914,000;    0,000
 707,14;12618,000; 2221,000;    0,000
 707,40;12255,000; 1721,000;    0,000
 707,66;12310,000; 1796,000;    0,000
 707,92;12324,000; 1997,000;    0,000
 708,18;12529,000; 1940,000;    0,000
 708,44;12330,000; 1530,000;    0,000
 708,70;12425,000; 1977,000;    0,000
 708,96;12274,000; 2219,000;    0,000
 709,22;12862,000; 2281,000;    0,000
 709,48;12800,000; 2227,000;    0,000
 709,74;13199,000; 2698,000;    0,000
 710,00;12718,000; 2192,000;    0,000
 710,26;12777,000; 1858,000;    0,000
 710,52;12282,000; 1566,000;    0,000
 710,78;12572,000; 1858,000;    0,000
 711,04;12489,000; 2040,000;    0,000
 711,30;12497,000; 1449,000;    0,000
 711,56;12310,000; 1758,000;    0,000
 711,82;12919,000; 2394,000;    0,000
 712,08;12069,000; 1452,000;    0,000
 712,34;12518,000; 2633,000;    0,000
 712,60;13114,000; 2734,000;    0,000
 712,86;12609,000; 2306,000;    0,000
 713,12;11977,000; 2352,000;    0,000
 713,38;11180,000; 1535,000;    0,000
 713,64;11762,000; 1774,000;    0,000
 713,90;11615,000; 1738,000;    0,000
 714,16;11284,000; 1646,000;    0,000
 714,42;11626,000; 1799,000;    0,000
 714,68;11941,000; 2275,000;    0,000
 714,94;12363,000; 2378,000;    0,000
 715,20;11783,000; 1936,000;    0,000
 715,45;11958,000; 1814,000;    0,000
 715,71;11864,000; 1979,000;    0,000
 715,97;11606,000; 1702,000;    0,000
 716,23;12111,000; 2300,000;    0,000
 716,49;12321,000; 2311,000;    0,000
 716,75;11374,000; 1566,000;    0,000
 717,01;11808,000; 2094,000;    0,000
 717,27;11806,000; 1644,000;    0,000
 717,53;12119,000; 2251,000;    0,000
 717,79;11646,000; 1599,000;    0,000
 718,05;12767,000; 2878,000;    0,000
 718,31;11359,000; 1592,000;    0,000
 718,56;11929,000; 1887,000;    0,000
 718,82;11751,000; 1847,000;    0,000
 719,08;11561,000; 1816,000;    0,000
 719,34;12033,000; 1324,000;    0,000
 719,60;11943,000; 1967,000;    0,000
 719,86;11792,000; 1651,000;    0,000
 720,12;11495,000; 1424,000;    0,000
 720,38;11840,000; 1749,000;    0,000
 720,63;12236,000; 2537,000;    0,000
 720,89;12465,000; 2445,000;    0,000
 721,15;12534,000; 2174,000;    0,000
 721,41;11709,000; 1509,000;    0,000
 721,67;12480,000; 1695,000;    0,000
 721,93;12949,000; 2046,000;    0,000
 722,19;12782,000; 1999,000;    0,000
 722,44;12548,000; 2024,000;    0,000
 722,70;13050,000; 1975,000;    0,000
 722,96;12897,000; 2057,000;    0,000
 723,22;13138,000; 1948,000;    0,000
 723,48;12870,000; 1729,000;    0,000
 723,74;13618,000; 2315,000;    0,000
 723,99;13670,000; 2253,000;    0,000
 724,25;13724,000; 2555,000;    0,000
 724,51;13506,000; 2325,000;    0,000
 724,77;14015,000; 2125,000;    0,000
 725,03;14622,000; 2249,000;    0,000
 725,29;14337,000; 1923,000;    0,000
 725,54;13799,000; 2259,000;    0,000
 725,80;14235,000; 2285,000;    0,000
 726,06;14225,000; 1900,000;    0,000
 726,32;14451,000; 1833,000;    0,000
 726,58;14716,000; 2285,000;    0,000
 726,83;14813,000; 2360,000;    0,000
 727,09;14649,000; 2354,000;    0,000
 727,35;14852,000; 2205,000;    0,000
 727,61;14883,000; 2008,000;    0,000
 727,87;14834,000; 2109,000;    0,000
 728,12;15108,000; 2389,000;    0,000
 728,38;15190,000; 2440,000;    0,000
 728,64;15307,000; 2580,000;    0,000
 728,90;15157,000; 2413,000;    0,000
 729,15;14724,000; 2096,000;    0,000
 729,41;14902,000; 2385,000;    0,000
 729,67;15500,000; 2933,000;    0,000
 729,93;15113,000; 2181,000;    0,000
 730,18;14480,000; 2004,000;    0,000
 730,44;15150,000; 2219,000;    0,000
 730,70;14530,000; 1932,000;    0,000
 730,96;14872,000; 2281,000;    0,000
 731,21;14722,000; 1992,000;    0,000
 731,47;15150,000; 2679,000;    0,000
 731,73;15222,000; 2405,000;    0,000
 731,99;16381,000; 3041,000;    0,000
 732,24;16481,000; 2618,000;    0,000
 732,50;17549,000; 2797,000;    0,000
 732,76;17072,000; 2457,000;    0,000
 733,02;17119,000; 3119,000;    0,000
 733,27;17476,000; 3028,000;    0,000
 733,53;17690,000; 2718,000;    0,000
 733,79;18056,000; 3222,000;    0,000
 734,04;17644,000; 2725,000;    0,000
 734,30;18017,000; 2751,000;    0,000
 734,56;18066,000; 2683,000;    0,000
 734,82;18122,000; 2596,000;    0,000
 735,07;18148,000; 2928,000;    0,000
 735,33;18227,000; 2530,000;    0,000
 735,59;18854,000; 3308,000;    0,000
 735,84;18394,000; 3215,000;    0,000
 736,10;18301,000; 2673,000;    0,000
 736,36;17889,000; 2739,000;    0,000
 736,61;18359,000; 3064,000;    0,000
 736,87;17052,000; 2389,000;    0,000
 737,13;17507,000; 2402,000;    0,000
 737,38;16850,000; 2270,000;    0,000
 737,64;17044,000; 2428,000;    0,000
 737,90;16919,000; 2403,000;    0,000
 738,15;17556,000; 2815,000;    0,000
 738,41;16991,000; 2882,000;    0,000
 738,67;16255,000; 2260,000;    0,000
 738,92;16899,000; 2379,000;    0,000
 739,18;17025,000; 2968,000;    0,000
 739,44;16621,000; 2651,000;    0,000
 739,69;16571,000; 2540,000;    0,000
 739,95;16011,000; 2313,000;    0,000
 740,21;16785,000; 2756,000;    0,000
 740,46;15774,000; 2407,000;    0,000
 740,72;16180,000; 2500,000;    0,000
 740,98;16081,000; 2835,000;    0,000
 741,23;15411,000; 2321,000;    0,000
 741,49;15790,000; 2739,000;    0,000
 741,74;15091,000; 2434,000;    0,000
 742,00;14751,000; 1951,000;    0,000
 742,26;14682,000; 2156,000;    0,000
 742,51;14691,000; 1986,000;    0,000
 742,77;13995,000; 1810,000;    0,000
 743,02;14127,000; 2234,000;    0,000
 743,28;13619,000; 1586,000;    0,000
 743,54;13214,000; 1781,000;    0,000
 743,79;14273,000; 2300,000;    0,000
 744,05;13223,000; 1958,000;    0,000
 744,30;14605,000; 2212,000;    0,000
 744,56;13967,000; 2330,000;    0,000
 744,82;13447,000; 1915,000;    0,000
 745,07;13968,000; 2491,000;    0,000
 745,33;14529,000; 2316,000;    0,000
 745,58;15668,000; 2637,000;    0,000
 745,84;15697,000; 2676,000;    0,000
 746,09;16319,000; 2975,000;    0,000
 746,35;16498,000; 2746,000;    0,000
 746,61;17550,000; 3067,000;    0,000
 746,86;17654,000; 2669,000;    0,000
 747,12;17642,000; 3123,000;    0,000
 747,37;18259,000; 3450,000;    0,000
 747,63;17138,000; 3184,000;    0,000
 747,88;18427,000; 3676,000;    0,000
 748,14;18322,000; 3408,000;    0,000
 748,39;18713,000; 3290,000;    0,000
 748,65;19137,000; 3370,000;    0,000
 748,91;18861,000; 3157,000;    0,000
 749,16;18179,000; 3003,000;    0,000
 749,42;18911,000; 3463,000;    0,000
 749,67;18542,000; 3144,000;    0,000
 749,93;18588,000; 3246,000;    0,000
 750,18;18780,000; 3578,000;    0,000
 750,44;18785,000; 4068,000;    0,000
 750,69;18271,000; 3439,000;    0,000
 750,95;18295,000; 3667,000;    0,000
 751,20;18497,000; 3504,000;    0,000
 751,46;18446,000; 3356,000;    0,000
 751,71;18548,000; 3731,000;    0,000
 751,97;17981,000; 3596,000;    0,000
 752,22;17869,000; 3055,000;    0,000
 752,48;17836,000; 2901,000;    0,000
 752,73;17824,000; 4101,000;    0,000
 752,99;17150,000; 2790,000;    0,000
 753,24;16880,000; 2895,000;    0,000
 753,50;16982,000; 3368,000;    0,000
 753,75;17243,000; 3806,000;    0,000
 754,01;16080,000; 2547,000;    0,000
 754,26;15776,000; 2754,000;    0,000
 754,51;15788,000; 3080,000;    0,000
 754,77;15148,000; 2813,000;    0,000
 755,02;14367,000; 2336,000;    0,000
 755,28;13933,000; 2551,000;    0,000
 755,53;13346,000; 2074,000;    0,000
 755,79;12765,000; 2183,000;    0,000
 756,04;12372,000; 2469,000;    0,000
 756,30;10923,000; 2029,000;    0,000
 756,55;10652,000; 2124,000;    0,000
 756,81; 9506,000; 2284,000;    0,000
 757,06;11248,000; 3036,000;    0,000
 757,31;10553,000; 2262,000;    0,000
 757,57;11345,000; 2305,000;    0,000
 757,82;11591,000; 2727,000;    0,000
 758,08;11555,000; 2417,000;    0,000
 758,33;11967,000; 2733,000;    0,000
 758,59;12382,000; 2994,000;    0,000
 758,84;12704,000; 2876,000;    0,000
 759,09;13345,000; 2738,000;    0,000
 759,35;13145,000; 2708,000;    0,000
 759,60;14135,000; 3403,000;    0,000
 759,86;14662,000; 3882,000;    0,000
 760,11;14998,000; 3843,000;    0,000
 760,36;14996,000; 3480,000;    0,000
 760,62;15320,000; 3507,000;    0,000
 760,87;15429,000; 3591,000;    0,000
 761,13;15209,000; 3560,000;    0,000
 761,38;15872,000; 4159,000;    0,000
 761,63;15216,000; 3781,000;    0,000
 761,89;15221,000; 3875,000;    0,000
 762,14;16368,000; 4452,000;    0,000
 762,39;15342,000; 3599,000;    0,000
 762,65;16070,000; 4038,000;    0,000
 762,90;15633,000; 4110,000;    0,000
 763,16;15748,000; 4216,000;    0,000
 763,41;15611,000; 3939,000;    0,000
 763,66;14927,000; 3574,000;    0,000
 763,92;15652,000; 4298,000;    0,000
 764,17;15420,000; 3874,000;    0,000
 764,42;15401,000; 3903,000;    0,000
 764,68;15291,000; 4068,000;    0,000
 764,93;14651,000; 3610,000;    0,000
 765,18;14216,000; 3538,000;    0,000
 765,44;14877,000; 3528,000;    0,000
 765,69;15770,000; 4890,000;    0,000
 765,94;15329,000; 3677,000;    0,000
 766,20;16605,000; 4772,000;    0,000
 766,45;15739,000; 4354,000;    0,000
 766,70;16198,000; 4289,000;    0,000
 766,96;15152,000; 3930,000;    0,000
 767,21;15748,000; 4269,000;    0,000
 767,46;14594,000; 3623,000;    0,000
 767,72;14891,000; 3920,000;    0,000
 767,97;14282,000; 3756,000;    0,000
 768,22;13550,000; 3730,000;    0,000
 768,47;13585,000; 3882,000;    0,000
 768,73;13377,000; 3580,000;    0,000
 768,98;12205,000; 3037,000;    0,000
 769,23;11543,000; 3073,000;    0,000
 769,49;10740,000; 3018,000;    0,000
 769,74; 9582,000; 2530,000;    0,000
 769,99; 7768,000; 2185,000;    0,000
 770,24; 7440,000; 2503,000;    0,000
 770,50; 7255,000; 2200,000;    0,000
 770,75; 7572,000; 2422,000;    0,000
 771,00; 7188,000; 2268,000;    0,000
 771,25; 7100,000; 1677,000;    0,000
 771,51; 7265,000; 1959,000;    0,000
 771,76; 7481,000; 1765,000;    0,000
 772,01; 7281,000; 2076,000;    0,000
 772,26; 7134,000; 1755,000;    0,000
 772,52; 7179,000; 1750,000;    0,000
 772,77; 6850,000; 1570,000;    0,000
 773,02; 7200,000; 1720,000;    0,000
 773,27; 6920,000; 1931,000;    0,000
 773,53; 6730,000; 1887,000;    0,000
 773,78; 7123,000; 1982,000;    0,000
 774,03; 6444,000; 1466,000;    0,000
 774,28; 6544,000; 2081,000;    0,000
 774,54; 6651,000; 1851,000;    0,000
 774,79; 6643,000; 1866,000;    0,000
 775,04; 6723,000; 1966,000;    0,000
 775,29; 6310,000; 1736,000;    0,000
 775,54; 6069,000; 1122,000;    0,000
 775,80; 6203,000; 1476,000;    0,000
 776,05; 5489,000; 1286,000;    0,000
 776,30; 6155,000; 1496,000;    0,000
 776,55; 5672,000; 1637,000;    0,000
 776,80; 5962,000; 1880,000;    0,000
 777,06; 4817,000; 1245,000;    0,000
 777,31; 5622,000; 1748,000;    0,000
 777,56; 4361,000;  687,000;    0,000
 777,81; 4478,000; 1099,000;    0,000
 778,06; 3908,000;  649,000;    0,000
 778,32; 4354,000; 1343,000;    0,000
 778,57; 3354,000;  805,000;    0,000
 778,82; 2702,000;  504,000;    0,000
 779,07; 2060,000;  265,000;    0,000
 779,32; 2272,000;  267,000;    0,000
 779,57; 1940,000;   87,000;    0,000
 779,83; 1901,000;  201,000;    0,000
 780,08; 1986,000;  297,000;    0,000
 780,33; 2336,000;  505,000;    0,000
 780,58; 2379,000;  857,000;    0,000
 780,83; 2356,000;  556,000;    0,000
 781,08; 2304,000;  556,000;    0,000
 781,33; 2165,000;  447,000;    0,000
 781,59; 1799,000;  -18,000;    0,000
 781,84; 2003,000;  179,000;    0,000
 782,09; 1865,000;  241,000;    0,000
 782,34; 1774,000;   95,000;    0,000
 782,59; 1860,000;  257,000;    0,000
 782,84; 2305,000;  706,000;    0,000
 783,09; 1903,000;  359,000;    0,000
 783,34; 2386,000;  769,000;    0,000
 783,59; 1718,000;  301,000;    0,000
 783,85; 1782,000;  223,000;    0,000
 784,10; 1504,000;  104,000;    0,000
 784,35; 2157,000;  734,000;    0,000
 784,60; 1762,000;  388,000;    0,000
 784,85; 1833,000;  405,000;    0,000
 785,10; 1814,000;  507,000;    0,000
 785,35; 1738,000;  171,000;    0,000
 785,60; 1330,000;  -24,000;    0,000
 785,85; 1971,000;  577,000;    0,000
 786,10; 1644,000;  330,000;    0,000
 786,35; 2477,000; 1314,000;    0,000
 786,61; 2080,000;  959,000;    0,000
 786,86; 1803,000;  529,000;    0,000
 787,11; 1571,000;  282,000;    0,000
 787,36; 2012,000; 1014,000;    0,000
 787,61; 1702,000;  608,000;    0,000
 787,86; 2048,000;  408,000;    0,000
 788,11; 1829,000;  612,000;    0,000
 788,36; 2149,000;  436,000;    0,000
 788,61; 2137,000;  618,000;    0,000
 788,86; 2945,000;  875,000;    0,000
 789,11; 2989,000;  923,000;    0,000
 789,36; 2672,000;  723,000;    0,000
 789,61; 2738,000;  895,000;    0,000
 789,86; 3324,000; 1276,000;    0,000
 790,11; 3356,000; 1121,000;    0,000
 790,36; 3414,000; 1116,000;    0,000
 790,61; 3137,000;  901,000;    0,000
 790,86; 3403,000; 1014,000;    0,000
 791,11; 3557,000; 1447,000;    0,000
 791,36; 3690,000; 1213,000;    0,000
 791,61; 3542,000; 1443,000;    0,000
 791,86; 3772,000; 1279,000;    0,000
 792,11; 4253,000; 1636,000;    0,000
 792,36; 3852,000; 1194,000;    0,000
 792,61; 3920,000; 1704,000;    0,000
 792,86; 4079,000; 1466,000;    0,000
 793,11; 4287,000; 1887,000;    0,000
 793,36; 3774,000; 1127,000;    0,000
 793,61; 3829,000; 1230,000;    0,000
 793,86; 4168,000; 1613,000;    0,000
 794,11; 3881,000; 1310,000;    0,000
 794,36; 4405,000; 1610,000;    0,000
 794,61; 4478,000; 1915,000;    0,000
 794,86; 5196,000; 1992,000;    0,000
 795,11; 5297,000; 2018,000;    0,000
 795,36; 5668,000; 2376,000;    0,000
 795,61; 6116,000; 2436,000;    0,000
 795,86; 6303,000; 2556,000;    0,000
 796,11; 6385,000; 2457,000;    0,000
 796,36; 6056,000; 2548,000;    0,000
 796,61; 7031,000; 2823,000;    0,000
 796,86; 6718,000; 2599,000;    0,000
 797,11; 6855,000; 2489,000;    0,000
 797,36; 7112,000; 3079,000;    0,000
 797,60; 6843,000; 2595,000;    0,000
 797,85; 7365,000; 3166,000;    0,000
 798,10; 7548,000; 3433,000;    0,000
 798,35; 6859,000; 2619,000;    0,000
 798,60; 7379,000; 3061,000;    0,000
 798,85; 7281,000; 2954,000;    0,000
 799,10; 7968,000; 3524,000;    0,000
 799,35; 7046,000; 2893,000;    0,000
 799,60; 6583,000; 3003,000;    0,000
 799,85; 7109,000; 3193,000;    0,000
 800,10; 6254,000; 2512,000;    0,000
 800,34; 6228,000; 2327,000;    0,000
 800,59; 5882,000; 2292,000;    0,000
 800,84; 5805,000; 2184,000;    0,000
 801,09; 5772,000; 2768,000;    0,000
 801,34; 5563,000; 2835,000;    0,000
 801,59; 4977,000; 2169,000;    0,000
 801,84; 5559,000; 2361,000;    0,000
 802,09; 5062,000; 2103,000;    0,000
 802,34; 4974,000; 2045,000;    0,000
 802,58; 4955,000; 1925,000;    0,000
 802,83; 5538,000; 2299,000;    0,000
 803,08; 5077,000; 1954,000;    0,000
 803,33; 5579,000; 2216,000;    0,000
 803,58; 5316,000; 2384,000;    0,000
 803,83; 6153,000; 2719,000;    0,000
 804,08; 6064,000; 2447,000;    0,000
 804,32; 7270,000; 3912,000;    0,000
 804,57; 6733,000; 3065,000;    0,000
 804,82; 7028,000; 3231,000;    0,000
 805,07; 8396,000; 3501,000;    0,000
 805,32; 9690,000; 4108,000;    0,000
 805,57; 9812,000; 4379,000;    0,000
 805,81;10114,000; 4443,000;    0,000
 806,06;10365,000; 4791,000;    0,000
 806,31;10696,000; 4369,000;    0,000
 806,56;11044,000; 4769,000;    0,000
 806,81;11146,000; 5134,000;    0,000
 807,05;11014,000; 4781,000;    0,000
 807,30;11976,000; 5504,000;    0,000
 807,55;12199,000; 5770,000;    0,000
 807,80;10910,000; 5047,000;    0,000
 808,05;11642,000; 5154,000;    0,000
 808,29;12227,000; 5855,000;    0,000
 808,54;11635,000; 5809,000;    0,000
 808,79;12705,000; 5958,000;    0,000
 809,04;12406,000; 5653,000;    0,000
 809,29;12769,000; 5808,000;    0,000
 809,53;12525,000; 5671,000;    0,000
 809,78;12685,000; 6089,000;    0,000
 810,03;13250,000; 5852,000;    0,000
 810,28;12763,000; 5851,000;    0,000
 810,52;12750,000; 5809,000;    0,000
 810,77;12534,000; 5702,000;    0,000
 811,02;13544,000; 6390,000;    0,000
 811,27;13325,000; 5757,000;    0,000
 811,51;13047,000; 6167,000;    0,000
 811,76;12447,000; 6005,000;    0,000
 812,01;12410,000; 5648,000;    0,000
 812,26;12910,000; 6118,000;    0,000
 812,50;11938,000; 5606,000;    0,000
 812,75;12235,000; 5310,000;    0,000
 813,00;11997,000; 5520,000;    0,000
 813,25;12323,000; 5629,000;    0,000
 813,49;11626,000; 5186,000;    0,000
 813,74;11537,000; 5256,000;    0,000
 813,99;11545,000; 5192,000;    0,000
 814,23;11924,000; 5689,000;    0,000
 814,48;10935,000; 5716,000;    0,000
 814,73;10075,000; 5030,000;    0,000
 814,98; 9426,000; 4597,000;    0,000
 815,22; 9656,000; 4867,000;    0,000
 815,47; 8365,000; 3816,000;    0,000
 815,72; 8171,000; 3887,000;    0,000
 815,96; 7473,000; 3778,000;    0,000
 816,21; 6699,000; 3047,000;    0,000
 816,46; 5405,000; 2695,000;    0,000
 816,70; 5532,000; 3019,000;    0,000
 816,95; 4169,000; 2181,000;    0,000
 817,20; 3936,000; 1874,000;    0,000
 817,44; 3033,000; 1423,000;    0,000
 817,69; 2600,000; 1062,000;    0,000
 817,94; 1763,000; 1045,000;    0,000
 818,18;  374,000;  351,000;    0,000
 818,43;  415,000;  226,000;    0,000
 818,68;  630,000;  114,000;    0,000
 818,92;  603,000;  372,000;    0,000
 819,17;  669,000;  313,000;    0,000
 819,42;  296,000;  -69,000;    0,000
 819,66;  341,000;   94,000;    0,000
 819,91;  944,000;  612,000;    0,000
 820,16; 1035,000;  627,000;    0,000
 820,40; 1534,000; 1054,000;    0,000
 820,65; 1378,000;  802,000;    0,000
 820,90;  932,000;  166,000;    0,000
 821,14; 1282,000;  421,000;    0,000
 821,39; 1093,000;  435,000;    0,000
 821,63; 1355,000;  558,000;    0,000
 821,88; 1016,000;  154,000;    0,000
 822,13; 1096,000;  384,000;    0,000
 822,37; 1476,000;  888,000;    0,000
 822,62; 1468,000;  666,000;    0,000
 822,86; 1237,000;  510,000;    0,000
 823,11; 1260,000;  472,000;    0,000
 823,36; 1819,000;  859,000;    0,000
 823,60; 1978,000; 1039,000;    0,000
 823,85; 1799,000; 1076,000;    0,000
 824,09; 1800,000; 1000,000;    0,000
 824,34; 1793,000;  725,000;    0,000
 824,59; 1883,000;  830,000;    0,000
 824,83; 1646,000;  745,000;    0,000
 825,08; 1519,000;  347,000;    0,000
 825,32; 1171,000;  611,000;    0,000
 825,57; 1932,000;  719,000;    0,000
 825,81; 1693,000;  880,000;    0,000
 826,06; 1345,000;  415,000;    0,000
 826,30; 1313,000;  363,000;    0,000
 826,55; 1727,000;  710,000;    0,000
 826,80; 1163,000;  549,000;    0,000
 827,04; 2316,000; 1297,000;    0,000
 827,29; 1578,000;  725,000;    0,000
 827,53; 1976,000; 1172,000;    0,000
 827,78; 1897,000;  962,000;    0,000
 828,02; 1423,000;  681,000;    0,000
 828,27; 1457,000;  698,000;    0,000
 828,51; 1651,000;  693,000;    0,000
 828,76; 1415,000;  661,000;    0,000
 829,00; 1718,000;  848,000;    0,000
 829,25; 1511,000;  704,000;    0,000
 829,49; 1522,000;  688,000;    0,000
 829,74; 1671,000;  864,000;    0,000
 829,98; 1509,000;  707,000;    0,000
 830,23; 1398,000;  629,000;    0,000
 830,47; 1275,000;  729,000;    0,000
 830,72; 1178,000;  553,000;    0,000
 830,96; 1241,000;  681,000;    0,000
 831,21;  624,000;   45,000;    0,000
 831,45; 1767,000; 1051,000;    0,000
 831,70;  741,000;  234,000;    0,000
 831,94;  971,000;  307,000;    0,000
 832,19;  936,000;  476,000;    0,000
 832,43;  752,000;  301,000;    0,000
 832,68;  967,000;  635,000;    0,000
 832,92;  782,000;  414,000;    0,000
 833,17;  -31,000; -119,000;    0,000
 833,41; 1090,000;  795,000;    0,000
 833,66;  277,000;  182,000;    0,000
 833,90;  611,000;  414,000;    0,000
 834,14;  398,000;   -2,000;    0,000
 834,39;  734,000;  295,000;    0,000
 834,63; 1058,000;  515,000;    0,000
 834,88; 1148,000;  606,000;    0,000
 835,12; 1165,000;  808,000;    0,000
 835,37; 1703,000;  914,000;    0,000
 835,61; 1400,000;  653,000;    0,000
 835,86; 2305,000; 1520,000;    0,000
 836,10; 1897,000;  652,000;    0,000
 836,34; 2460,000; 1151,000;    0,000
 836,59; 2505,000;  970,000;    0,000
 836,83; 3002,000; 1217,000;    0,000
 837,08; 3286,000; 1617,000;    0,000
 837,32; 3320,000; 1677,000;    0,000
 837,56; 3377,000; 1429,000;    0,000
 837,81; 3440,000; 1446,000;    0,000
 838,05; 3822,000; 1966,000;    0,000
 838,30; 4217,000; 1855,000;    0,000
 838,54; 4269,000; 1886,000;    0,000
 838,78; 4276,000; 2107,000;    0,000
 839,03; 3983,000; 1872,000;    0,000
 839,27; 4755,000; 2296,000;    0,000
 839,52; 4736,000; 2579,000;    0,000
 839,76; 4554,000; 2188,000;    0,000
 840,00; 5279,000; 3117,000;    0,000
 840,25; 4701,000; 2097,000;    0,000
 840,49; 4907,000; 2265,000;    0,000
 840,73; 4858,000; 2454,000;    0,000
 840,98; 4812,000; 2283,000;    0,000
 841,22; 4593,000; 2149,000;    0,000
 841,46; 4856,000; 2430,000;    0,000
 841,71; 5067,000; 2393,000;    0,000
 841,95; 4682,000; 2330,000;    0,000
 842,19; 4994,000; 2452,000;    0,000
 842,44; 3954,000; 2072,000;    0,000
 842,68; 4736,000; 2282,000;    0,000
 842,92; 4579,000; 2346,000;    0,000
 843,17; 4693,000; 2216,000;    0,000
 843,41; 4558,000; 2281,000;    0,000
 843,65; 4749,000; 2697,000;    0,000
 843,90; 4221,000; 2236,000;    0,000
 844,14; 4537,000; 2516,000;    0,000
 844,38; 4484,000; 2277,000;    0,000
 844,63; 4255,000; 1963,000;    0,000
 844,87; 4008,000; 2238,000;    0,000
 845,11; 4476,000; 2449,000;    0,000
 845,36; 3810,000; 1793,000;    0,000
 845,60; 3714,000; 1729,000;    0,000
 845,84; 3621,000; 1593,000;    0,000
 846,08; 4060,000; 2012,000;    0,000
 846,33; 4039,000; 1964,000;    0,000
 846,57; 3423,000; 1695,000;    0,000
 846,81; 2774,000; 1404,000;    0,000
 847,06; 3296,000; 1901,000;    0,000
 847,30; 2285,000; 1473,000;    0,000
 847,54; 2417,000; 1071,000;    0,000
 847,78; 2099,000; 1199,000;    0,000
 848,03; 2045,000;  917,000;    0,000
 848,27; 2145,000; 1202,000;    0,000
 848,51; 1964,000; 1101,000;    0,000
 848,75; 1786,000; 1295,000;    0,000
 849,00; 1303,000; 1078,000;    0,000
 849,24;  878,000;  436,000;    0,000
 849,48;  976,000;  226,000;    0,000
 849,72; 1267,000;  738,000;    0,000
 849,97; 1663,000; 1022,000;    0,000
 850,21; 1115,000;  726,000;    0,000
 850,45; 1387,000;  935,000;    0,000
 850,69;  935,000;  544,000;    0,000
 850,94; 1165,000;  502,000;    0,000
 851,18;  701,000;  282,000;    0,000
 851,42;  965,000;  374,000;    0,000
 851,66; 1261,000;  947,000;    0,000
 851,90; 1091,000;  581,000;    0,000
 852,15; 1154,000;  628,000;    0,000
 852,39; 1042,000;  484,000;    0,000
 852,63;  796,000;  204,000;    0,000
 852,87; 1544,000; 1042,000;    0,000
 853,11;  911,000;  428,000;    0,000
 853,36; 1445,000;  651,000;    0,000
 853,60; 1178,000;  747,000;    0,000
 853,84; 1342,000;  937,000;    0,000
 854,08; 1177,000;  816,000;    0,000
 854,32; 1111,000;  381,000;    0,000
 854,56; 1054,000;  663,000;    0,000
 854,81; 1585,000; 1070,000;    0,000
 855,05;  862,000;  396,000;    0,000
 855,29; 1414,000; 1075,000;    0,000
 855,53;  639,000;  280,000;    0,000
 855,77; 1089,000;  660,000;    0,000
 856,01; 1030,000;  426,000;    0,000
 856,26; 1039,000;  589,000;    0,000
 856,50;  852,000;  427,000;    0,000
 856,74;  579,000;   91,000;    0,000
 856,98;  870,000;  689,000;    0,000
 857,22;  851,000;  614,000;    0,000
 857,46;  729,000;  494,000;    0,000
 857,70; 1002,000;  652,000;    0,000
 857,94;  789,000;  575,000;    0,000
 858,19;  585,000;  283,000;    0,000
 858,43;  449,000;  176,000;    0,000
 858,67;  382,000;  166,000;    0,000
 858,91;  646,000;  585,000;    0,000
 859,15;  272,000;  144,000;    0,000
 859,39;  542,000;  489,000;    0,000
 859,63;  418,000;  337,000;    0,000
 859,87; 1344,000; 1396,000;    0,000
 860,11;  437,000;  315,000;    0,000
 860,35;  279,000;   91,000;    0,000
 860,60;  219,000;  -45,000;    0,000
 860,84;  284,000;   70,000;    0,000
 861,08;  596,000;  537,000;    0,000
 861,32;  520,000;  487,000;    0,000
 861,56;  821,000;  612,000;    0,000
 861,80;  543,000;  463,000;    0,000
 862,04;  822,000;  688,000;    0,000
 862,28; 1207,000;  990,000;    0,000
 862,52;  808,000;  598,000;    0,000
 862,76;  556,000;  483,000;    0,000
 863,00; 1167,000; 1098,000;    0,000
 863,24;  296,000;  177,000;    0,000
 863,48;  785,000;  580,000;    0,000
 863,72;  663,000;  688,000;    0,000
 863,96; 1134,000; 1254,000;    0,000
 864,20;  957,000;  892,000;    0,000
 864,44;  796,000;  569,000;    0,000
 864,69;  440,000;  311,000;    0,000
 864,93;  627,000;  363,000;    0,000
 865,17;  308,000;  152,000;    0,000
 865,41; 1624,000; 1233,000;    0,000
 865,65;  529,000;  308,000;    0,000
 865,89;  748,000;  374,000;    0,000
 866,13;  695,000;  583,000;    0,000
 866,37; 1470,000; 1073,000;    0,000
 866,61;  545,000;  338,000;    0,000
 866,85;  738,000;  587,000;    0,000
 867,09;  663,000;  412,000;    0,000
 867,33; 1441,000; 1328,000;    0,000
 867,57; 1100,000;  926,000;    0,000
 867,81; 1214,000;  894,000;    0,000
 868,05;  794,000;  671,000;    0,000
 868,29;  729,000;  633,000;    0,000
 868,53;  880,000;  691,000;    0,000
 868,76; 1222,000;  988,000;    0,000
 869,00;  690,000;  622,000;    0,000
 869,24; 1249,000;  980,000;    0,000
 869,48;  862,000;  772,000;    0,000
 869,72;  654,000;  412,000;    0,000
 869,96;  702,000;  597,000;    0,000
 870,20; 1055,000;  822,000;    0,000
 870,44;  840,000;  719,000;    0,000
 870,68; 1459,000; 1205,000;    0,000
 870,92;  924,000;  753,000;    0,000
 871,16; 1171,000;  811,000;    0,000
 871,40; 1627,000; 1452,000;    0,000
 871,64; 1646,000; 1108,000;    0,000
 871,88;  817,000;  604,000;    0,000
 872,12;  956,000;  707,000;    0,000
 872,36; 1185,000; 1079,000;    0,000
 872,60;  985,000;  851,000;    0,000
 872,83;  862,000;  687,000;    0,000
 873,07; 1348,000; 1255,000;    0,000
 873,31; 1085,000;  871,000;    0,000
 873,55; 1170,000; 1258,000;    0,000
 873,79;  754,000;  649,000;    0,000
 874,03; 1103,000;  968,000;    0,000
 874,27;  817,000;  693,000;    0,000
 874,51; 1166,000;  908,000;    0,000
 874,75; 1204,000;  968,000;    0,000
 874,99; 1063,000;  947,000;    0,000
 875,22; 1257,000; 1189,000;    0,000
 875,46; 1054,000;  775,000;    0,000
 875,70;  954,000;  879,000;    0,000
 875,94; 1494,000; 1099,000;    0,000
 876,18;  993,000; 1107,000;    0,000
 876,42;  940,000;  827,000;    0,000
 876,66; 1146,000; 1175,000;    0,000
 876,89; 1233,000; 1014,000;    0,000
 877,13; 1452,000; 1229,000;    0,000
 877,37; 1050,000;  802,000;    0,000
 877,61; 1151,000; 1127,000;    0,000
 877,85; 1609,000; 1670,000;    0,000
 878,09; 1898,000; 1838,000;    0,000
 878,33; 1316,000; 1203,000;    0,000
 878,56; 1238,000; 1142,000;    0,000
 878,80; 1291,000; 1142,000;    0,000
 879,04; 1338,000; 1568,000;    0,000
 879,28; 1683,000; 1668,000;    0,000
 879,52; 1331,000; 1195,000;    0,000
 879,75; 1623,000; 1618,000;    0,000
 879,99; 1585,000; 1584,000;    0,000
 880,23; 1643,000; 1369,000;    0,000
 880,47; 1795,000; 1581,000;    0,000
 880,71; 1805,000; 1706,000;    0,000
 880,95; 2111,000; 2066,000;    0,000
 881,18; 1962,000; 1757,000;    0,000
 881,42; 2087,000; 2202,000;    0,000
 881,66; 2445,000; 2555,000;    0,000
 881,90; 2052,000; 2050,000;    0,000
 882,13; 2173,000; 2238,000;    0,000
 882,37; 2648,000; 2528,000;    0,000
 882,61; 2683,000; 2750,000;    0,000
 882,85; 2752,000; 2749,000;    0,000
 883,09; 3098,000; 3200,000;    0,000
 883,32; 3152,000; 3452,000;    0,000
 883,56; 3690,000; 3739,000;    0,000
 883,80; 3541,000; 3764,000;    0,000
 884,04; 3862,000; 4057,000;    0,000
 884,27; 4818,000; 5097,000;    0,000
 884,51; 4762,000; 4775,000;    0,000
 884,75; 5566,000; 5777,000;    0,000
 884,99; 6474,000; 6635,000;    0,000
 885,22; 7340,000; 7196,000;    0,000
 885,46; 7777,000; 8313,000;    0,000

