qd2_maple_red_orange
Integration time [ms]:  500,00
Averaging Nr. [scans]: 1
Smoothing Nr. [pixels]: 0
Data measured with spectrometer [name]: 1412150E1
Wave   ;Sample   ;Dark     ;Reference;Scope
[nm]   ;[counts] ;[counts] ;[counts] 

 337,19;10963,000; 4519,000;    0,000
 337,48;11449,000; 4777,000;    0,000
 337,77;11525,000; 4996,000;    0,000
 338,07;11792,000; 5120,000;    0,000
 338,36;12243,000; 5286,000;    0,000
 338,66;12707,000; 5142,000;    0,000
 338,95;12787,000; 5652,000;    0,000
 339,24;12842,000; 5451,000;    0,000
 339,54;13144,000; 5497,000;    0,000
 339,83;14063,000; 5938,000;    0,000
 340,12;14106,000; 6176,000;    0,000
 340,42;15039,000; 5847,000;    0,000
 340,71;15173,000; 6095,000;    0,000
 341,00;15353,000; 6297,000;    0,000
 341,30;15586,000; 6500,000;    0,000
 341,59;16196,000; 6309,000;    0,000
 341,88;16136,000; 6505,000;    0,000
 342,18;16872,000; 6662,000;    0,000
 342,47;17381,000; 7136,000;    0,000
 342,76;18002,000; 7683,000;    0,000
 343,06;17436,000; 6938,000;    0,000
 343,35;18079,000; 7263,000;    0,000
 343,64;18582,000; 7272,000;    0,000
 343,94;18702,000; 7497,000;    0,000
 344,23;19487,000; 7195,000;    0,000
 344,52;20209,000; 8224,000;    0,000
 344,82;19754,000; 7697,000;    0,000
 345,11;20500,000; 7983,000;    0,000
 345,40;21171,000; 8548,000;    0,000
 345,70;21167,000; 8504,000;    0,000
 345,99;21471,000; 8171,000;    0,000
 346,28;22594,000; 8727,000;    0,000
 346,58;22616,000; 8549,000;    0,000
 346,87;23005,000; 8801,000;    0,000
 347,16;23802,000; 9409,000;    0,000
 347,45;24273,000; 9224,000;    0,000
 347,75;24589,000; 9093,000;    0,000
 348,04;25371,000;10353,000;    0,000
 348,33;25297,000;10122,000;    0,000
 348,63;26544,000;10359,000;    0,000
 348,92;26169,000; 9975,000;    0,000
 349,21;27688,000;10645,000;    0,000
 349,51;27908,000;10752,000;    0,000
 349,80;27608,000;10882,000;    0,000
 350,09;28488,000;10725,000;    0,000
 350,38;29332,000;11350,000;    0,000
 350,68;29080,000;11062,000;    0,000
 350,97;30861,000;12057,000;    0,000
 351,26;31336,000;12382,000;    0,000
 351,55;30973,000;11691,000;    0,000
 351,85;31646,000;11512,000;    0,000
 352,14;31983,000;12062,000;    0,000
 352,43;33495,000;12134,000;    0,000
 352,73;33527,000;12194,000;    0,000
 353,02;34415,000;12961,000;    0,000
 353,31;34900,000;12741,000;    0,000
 353,60;35896,000;13288,000;    0,000
 353,90;36207,000;13402,000;    0,000
 354,19;37792,000;13302,000;    0,000
 354,48;38391,000;13583,000;    0,000
 354,77;38424,000;13930,000;    0,000
 355,07;39251,000;14181,000;    0,000
 355,36;39470,000;14068,000;    0,000
 355,65;40319,000;15094,000;    0,000
 355,94;41160,000;14989,000;    0,000
 356,23;42335,000;15518,000;    0,000
 356,53;43272,000;16018,000;    0,000
 356,82;44614,000;16227,000;    0,000
 357,11;45680,000;16204,000;    0,000
 357,40;45739,000;15979,000;    0,000
 357,70;47032,000;16676,000;    0,000
 357,99;47671,000;17580,000;    0,000
 358,28;48859,000;17299,000;    0,000
 358,57;51397,000;18173,000;    0,000
 358,87;51846,000;17755,000;    0,000
 359,16;52839,000;18435,000;    0,000
 359,45;54556,000;18771,000;    0,000
 359,74;55485,000;19402,000;    0,000
 360,03;56275,000;20186,000;    0,000
 360,33;56598,000;19664,000;    0,000
 360,62;57648,000;19493,000;    0,000
 360,91;58557,000;20114,000;    0,000
 361,20;59391,000;20008,000;    0,000
 361,49;60573,000;20694,000;    0,000
 361,79;61477,000;20705,000;    0,000
 362,08;61813,000;21141,000;    0,000
 362,37;62195,000;21162,000;    0,000
 362,66;63123,000;20959,000;    0,000
 362,95;63778,000;21384,000;    0,000
 363,25;63888,000;21529,000;    0,000
 363,54;63778,000;21446,000;    0,000
 363,83;63888,000;21732,000;    0,000
 364,12;63778,000;21897,000;    0,000
 364,41;63888,000;21721,000;    0,000
 364,70;63778,000;22250,000;    0,000
 365,00;63888,000;22000,000;    0,000
 365,29;63778,000;22139,000;    0,000
 365,58;63888,000;22063,000;    0,000
 365,87;63778,000;21752,000;    0,000
 366,16;63888,000;21322,000;    0,000
 366,45;63778,000;21847,000;    0,000
 366,75;63888,000;21324,000;    0,000
 367,04;63778,000;21463,000;    0,000
 367,33;63888,000;21349,000;    0,000
 367,62;63778,000;21652,000;    0,000
 367,91;63888,000;21204,000;    0,000
 368,20;63778,000;20775,000;    0,000
 368,50;63888,000;21236,000;    0,000
 368,79;63778,000;20604,000;    0,000
 369,08;63888,000;20361,000;    0,000
 369,37;63778,000;20559,000;    0,000
 369,66;63888,000;20310,000;    0,000
 369,95;63778,000;20243,000;    0,000
 370,24;63888,000;20353,000;    0,000
 370,53;63778,000;19478,000;    0,000
 370,83;63888,000;19258,000;    0,000
 371,12;63778,000;18966,000;    0,000
 371,41;63888,000;18842,000;    0,000
 371,70;63778,000;18296,000;    0,000
 371,99;63888,000;18008,000;    0,000
 372,28;63778,000;17604,000;    0,000
 372,57;63888,000;17814,000;    0,000
 372,86;63778,000;16670,000;    0,000
 373,16;63888,000;16681,000;    0,000
 373,45;63778,000;16549,000;    0,000
 373,74;63888,000;15829,000;    0,000
 374,03;63778,000;16024,000;    0,000
 374,32;63888,000;16248,000;    0,000
 374,61;63778,000;15984,000;    0,000
 374,90;63888,000;15269,000;    0,000
 375,19;63778,000;14620,000;    0,000
 375,48;63138,000;14773,000;    0,000
 375,78;62734,000;14703,000;    0,000
 376,07;62117,000;14255,000;    0,000
 376,36;62108,000;14048,000;    0,000
 376,65;60784,000;14089,000;    0,000
 376,94;61007,000;13344,000;    0,000
 377,23;60434,000;13638,000;    0,000
 377,52;59113,000;13325,000;    0,000
 377,81;58795,000;12717,000;    0,000
 378,10;58332,000;13206,000;    0,000
 378,39;57627,000;13371,000;    0,000
 378,68;56009,000;12866,000;    0,000
 378,97;56332,000;12559,000;    0,000
 379,26;54866,000;11454,000;    0,000
 379,56;53795,000;11636,000;    0,000
 379,85;55082,000;12247,000;    0,000
 380,14;53078,000;11310,000;    0,000
 380,43;52834,000;11443,000;    0,000
 380,72;52966,000;12082,000;    0,000
 381,01;51706,000;11839,000;    0,000
 381,30;50448,000;11308,000;    0,000
 381,59;50053,000;11084,000;    0,000
 381,88;48668,000;10752,000;    0,000
 382,17;49449,000;10656,000;    0,000
 382,46;48422,000;11054,000;    0,000
 382,75;46930,000;10779,000;    0,000
 383,04;47176,000;10369,000;    0,000
 383,33;46054,000;10529,000;    0,000
 383,62;45812,000;10143,000;    0,000
 383,91;43489,000; 9842,000;    0,000
 384,20;44446,000;10664,000;    0,000
 384,49;43246,000;10016,000;    0,000
 384,78;42872,000; 9537,000;    0,000
 385,07;41346,000; 9869,000;    0,000
 385,36;41222,000; 9800,000;    0,000
 385,65;40761,000; 9627,000;    0,000
 385,94;39780,000; 9539,000;    0,000
 386,23;39542,000; 9454,000;    0,000
 386,52;38390,000; 8805,000;    0,000
 386,81;38653,000; 9847,000;    0,000
 387,10;37354,000; 9246,000;    0,000
 387,39;36868,000; 8569,000;    0,000
 387,68;35408,000; 8956,000;    0,000
 387,97;34915,000; 9054,000;    0,000
 388,26;34716,000; 8392,000;    0,000
 388,55;33857,000; 8528,000;    0,000
 388,84;33781,000; 8787,000;    0,000
 389,13;32482,000; 8379,000;    0,000
 389,42;32515,000; 8860,000;    0,000
 389,71;31684,000; 8775,000;    0,000
 390,00;31260,000; 8527,000;    0,000
 390,29;30785,000; 8773,000;    0,000
 390,58;30250,000; 8302,000;    0,000
 390,87;29530,000; 8653,000;    0,000
 391,16;28711,000; 8430,000;    0,000
 391,45;27816,000; 8257,000;    0,000
 391,74;27786,000; 8053,000;    0,000
 392,03;27817,000; 8568,000;    0,000
 392,32;26588,000; 7993,000;    0,000
 392,61;26272,000; 7782,000;    0,000
 392,90;25269,000; 7701,000;    0,000
 393,19;25145,000; 7850,000;    0,000
 393,48;24434,000; 7493,000;    0,000
 393,77;23534,000; 7194,000;    0,000
 394,06;23259,000; 7300,000;    0,000
 394,35;22089,000; 7192,000;    0,000
 394,64;21446,000; 7166,000;    0,000
 394,93;21529,000; 6812,000;    0,000
 395,22;21440,000; 7084,000;    0,000
 395,51;21114,000; 7275,000;    0,000
 395,80;20448,000; 6721,000;    0,000
 396,09;19557,000; 6734,000;    0,000
 396,38;19724,000; 6827,000;    0,000
 396,67;18718,000; 6625,000;    0,000
 396,95;18440,000; 7214,000;    0,000
 397,24;18334,000; 7052,000;    0,000
 397,53;18684,000; 8068,000;    0,000
 397,82;20790,000; 8647,000;    0,000
 398,11;23570,000; 9783,000;    0,000
 398,40;25546,000;10706,000;    0,000
 398,69;28518,000;11843,000;    0,000
 398,98;28842,000;12285,000;    0,000
 399,27;29862,000;12832,000;    0,000
 399,56;30017,000;12997,000;    0,000
 399,85;29868,000;13598,000;    0,000
 400,14;30403,000;14305,000;    0,000
 400,42;29876,000;14131,000;    0,000
 400,71;29479,000;13799,000;    0,000
 401,00;30518,000;14597,000;    0,000
 401,29;31694,000;14540,000;    0,000
 401,58;31131,000;14557,000;    0,000
 401,87;31608,000;15101,000;    0,000
 402,16;31171,000;14872,000;    0,000
 402,45;30441,000;14890,000;    0,000
 402,74;30892,000;15279,000;    0,000
 403,03;30734,000;14890,000;    0,000
 403,31;30227,000;15193,000;    0,000
 403,60;30010,000;14965,000;    0,000
 403,89;29180,000;14546,000;    0,000
 404,18;28802,000;14709,000;    0,000
 404,47;28646,000;14314,000;    0,000
 404,76;29162,000;14718,000;    0,000
 405,05;29218,000;14495,000;    0,000
 405,34;28748,000;13520,000;    0,000
 405,62;28578,000;14395,000;    0,000
 405,91;28539,000;14404,000;    0,000
 406,20;28364,000;14296,000;    0,000
 406,49;28221,000;14141,000;    0,000
 406,78;27879,000;13849,000;    0,000
 407,07;27227,000;13801,000;    0,000
 407,36;28051,000;13823,000;    0,000
 407,64;27894,000;13621,000;    0,000
 407,93;27014,000;13981,000;    0,000
 408,22;25906,000;13202,000;    0,000
 408,51;26119,000;13321,000;    0,000
 408,80;24382,000;12237,000;    0,000
 409,09;23782,000;12421,000;    0,000
 409,38;23241,000;11910,000;    0,000
 409,66;23288,000;12082,000;    0,000
 409,95;22790,000;11496,000;    0,000
 410,24;20940,000; 9873,000;    0,000
 410,53;19065,000; 8962,000;    0,000
 410,82;16806,000; 7956,000;    0,000
 411,11;13322,000; 7008,000;    0,000
 411,39; 9490,000; 6189,000;    0,000
 411,68; 6598,000; 4926,000;    0,000
 411,97; 6054,000; 3552,000;    0,000
 412,26; 5801,000; 3121,000;    0,000
 412,55; 5722,000; 3057,000;    0,000
 412,83; 5915,000; 3416,000;    0,000
 413,12; 4962,000; 2552,000;    0,000
 413,41; 4811,000; 2621,000;    0,000
 413,70; 5392,000; 3321,000;    0,000
 413,99; 4409,000; 2190,000;    0,000
 414,27; 3847,000; 2051,000;    0,000
 414,56; 4097,000; 2295,000;    0,000
 414,85; 3995,000; 2483,000;    0,000
 415,14; 3572,000; 2062,000;    0,000
 415,43; 3294,000; 1646,000;    0,000
 415,71; 2894,000; 1325,000;    0,000
 416,00; 3092,000; 1612,000;    0,000
 416,29; 3228,000; 1599,000;    0,000
 416,58; 3119,000; 1686,000;    0,000
 416,87; 3201,000; 1708,000;    0,000
 417,15; 2558,000; 1217,000;    0,000
 417,44; 2930,000; 1707,000;    0,000
 417,73; 3225,000; 1774,000;    0,000
 418,02; 2956,000; 1850,000;    0,000
 418,30; 2398,000; 1393,000;    0,000
 418,59; 2939,000; 1702,000;    0,000
 418,88; 2734,000; 1614,000;    0,000
 419,17; 2449,000; 1292,000;    0,000
 419,45; 2405,000; 1342,000;    0,000
 419,74; 2393,000; 1466,000;    0,000
 420,03; 2125,000;  888,000;    0,000
 420,32; 2179,000; 1298,000;    0,000
 420,60; 2246,000; 1633,000;    0,000
 420,89; 2297,000; 1336,000;    0,000
 421,18; 2208,000; 1224,000;    0,000
 421,47; 1795,000;  915,000;    0,000
 421,75; 1733,000;  798,000;    0,000
 422,04; 1849,000;  988,000;    0,000
 422,33; 1662,000;  919,000;    0,000
 422,62; 2014,000; 1261,000;    0,000
 422,90; 1867,000;  868,000;    0,000
 423,19; 1677,000;  868,000;    0,000
 423,48; 1916,000;  953,000;    0,000
 423,77; 1797,000;  989,000;    0,000
 424,05; 1662,000;  771,000;    0,000
 424,34; 1538,000;  777,000;    0,000
 424,63; 2106,000; 1289,000;    0,000
 424,91; 1654,000; 1252,000;    0,000
 425,20; 1628,000;  825,000;    0,000
 425,49; 1651,000; 1191,000;    0,000
 425,78; 1748,000; 1265,000;    0,000
 426,06; 1647,000;  972,000;    0,000
 426,35; 2334,000; 1885,000;    0,000
 426,64; 1734,000; 1272,000;    0,000
 426,92; 1849,000; 1358,000;    0,000
 427,21; 1444,000;  772,000;    0,000
 427,50; 1529,000;  471,000;    0,000
 427,78; 1237,000;  580,000;    0,000
 428,07; 9070,000;10971,000;    0,000
 428,36; 1141,000;  696,000;    0,000
 428,65; 2119,000; 1755,000;    0,000
 428,93; 2051,000; 1399,000;    0,000
 429,22; 3348,000; 2217,000;    0,000
 429,51; 4047,000; 2177,000;    0,000
 429,79; 4824,000; 2359,000;    0,000
 430,08; 5562,000; 2793,000;    0,000
 430,37; 6041,000; 3226,000;    0,000
 430,65; 6106,000; 3038,000;    0,000
 430,94; 6769,000; 3643,000;    0,000
 431,23; 6772,000; 3501,000;    0,000
 431,51; 7004,000; 3635,000;    0,000
 431,80; 7329,000; 3812,000;    0,000
 432,09; 7420,000; 3784,000;    0,000
 432,37; 7335,000; 4191,000;    0,000
 432,66; 7571,000; 4093,000;    0,000
 432,95; 7766,000; 3871,000;    0,000
 433,23; 7900,000; 4511,000;    0,000
 433,52; 7750,000; 4259,000;    0,000
 433,81; 7533,000; 4230,000;    0,000
 434,09; 7852,000; 4322,000;    0,000
 434,38; 7408,000; 4106,000;    0,000
 434,66; 8012,000; 4497,000;    0,000
 434,95; 7916,000; 4346,000;    0,000
 435,24; 7721,000; 4354,000;    0,000
 435,52; 7639,000; 4004,000;    0,000
 435,81; 7328,000; 3892,000;    0,000
 436,10; 7845,000; 4531,000;    0,000
 436,38; 7698,000; 4278,000;    0,000
 436,67; 8056,000; 4196,000;    0,000
 436,95; 7834,000; 4319,000;    0,000
 437,24; 7721,000; 4133,000;    0,000
 437,53; 7425,000; 3687,000;    0,000
 437,81; 8044,000; 4544,000;    0,000
 438,10; 7792,000; 4729,000;    0,000
 438,39; 7830,000; 3826,000;    0,000
 438,67; 7711,000; 3878,000;    0,000
 438,96; 8056,000; 4744,000;    0,000
 439,24; 7846,000; 4235,000;    0,000
 439,53; 8105,000; 4443,000;    0,000
 439,82; 7193,000; 3668,000;    0,000
 440,10; 7261,000; 4050,000;    0,000
 440,39; 7040,000; 3995,000;    0,000
 440,67; 6836,000; 3706,000;    0,000
 440,96; 6545,000; 3703,000;    0,000
 441,25; 6514,000; 3713,000;    0,000
 441,53; 6265,000; 3424,000;    0,000
 441,82; 4889,000; 2410,000;    0,000
 442,10; 4332,000; 2274,000;    0,000
 442,39; 2826,000; 1444,000;    0,000
 442,67; 4265,000; 4458,000;    0,000
 442,96; 1310,000; 1101,000;    0,000
 443,25; 1095,000;  738,000;    0,000
 443,53; 1841,000; 1578,000;    0,000
 443,82; 1261,000;  791,000;    0,000
 444,10; 1504,000; 1148,000;    0,000
 444,39; 1165,000; 1098,000;    0,000
 444,67; 1589,000; 1066,000;    0,000
 444,96;  963,000;  674,000;    0,000
 445,24; 1198,000; 1002,000;    0,000
 445,53; 1144,000;  837,000;    0,000
 445,82; 1676,000; 1072,000;    0,000
 446,10; 1109,000;  884,000;    0,000
 446,39; 1137,000;  670,000;    0,000
 446,67; 1445,000;  810,000;    0,000
 446,96; 1167,000;  727,000;    0,000
 447,24; 1120,000;  677,000;    0,000
 447,53; 1240,000;  749,000;    0,000
 447,81;  989,000;  766,000;    0,000
 448,10; 1266,000;  990,000;    0,000
 448,38; 1106,000;  573,000;    0,000
 448,67; 1497,000; 1209,000;    0,000
 448,95; 1260,000; 1076,000;    0,000
 449,24; 1484,000; 1090,000;    0,000
 449,53; 1265,000;  990,000;    0,000
 449,81;  902,000;  561,000;    0,000
 450,10;  903,000;  480,000;    0,000
 450,38; 1073,000;  743,000;    0,000
 450,67; 1668,000; 1212,000;    0,000
 450,95; 1322,000;  890,000;    0,000
 451,24;  975,000;  478,000;    0,000
 451,52; 1473,000;  717,000;    0,000
 451,81; 1417,000;  999,000;    0,000
 452,09; 1369,000; 1007,000;    0,000
 452,38; 1479,000; 1098,000;    0,000
 452,66; 1283,000;  852,000;    0,000
 452,95; 1037,000;  938,000;    0,000
 453,23; 1768,000; 1266,000;    0,000
 453,52; 1337,000; 1055,000;    0,000
 453,80; 1651,000; 1298,000;    0,000
 454,08; 1478,000; 1019,000;    0,000
 454,37; 1280,000;  832,000;    0,000
 454,65; 1118,000;  906,000;    0,000
 454,94; 1490,000; 1042,000;    0,000
 455,22;  966,000;  650,000;    0,000
 455,51; 1340,000;  664,000;    0,000
 455,79; 1620,000; 1497,000;    0,000
 456,08; 1644,000; 1360,000;    0,000
 456,36; 1847,000; 1266,000;    0,000
 456,65; 1522,000; 1088,000;    0,000
 456,93; 1206,000;  871,000;    0,000
 457,22; 1311,000;  715,000;    0,000
 457,50; 1058,000;  671,000;    0,000
 457,79; 1279,000;  772,000;    0,000
 458,07; 1667,000; 1381,000;    0,000
 458,35; 1388,000;  832,000;    0,000
 458,64; 1106,000;  905,000;    0,000
 458,92; 1848,000; 1508,000;    0,000
 459,21; 1492,000;  919,000;    0,000
 459,49; 1209,000;  909,000;    0,000
 459,78; 1398,000;  975,000;    0,000
 460,06; 1236,000;  921,000;    0,000
 460,34; 1286,000;  777,000;    0,000
 460,63; 1139,000;  756,000;    0,000
 460,91; 1229,000;  756,000;    0,000
 461,20; 1386,000;  910,000;    0,000
 461,48; 1310,000; 1030,000;    0,000
 461,77; 1388,000;  895,000;    0,000
 462,05; 1326,000;  991,000;    0,000
 462,33; 1344,000; 1043,000;    0,000
 462,62; 1563,000; 1186,000;    0,000
 462,90; 1348,000;  886,000;    0,000
 463,19; 1494,000; 1247,000;    0,000
 463,47; 1706,000;  992,000;    0,000
 463,75; 1560,000; 1375,000;    0,000
 464,04; 1475,000; 1000,000;    0,000
 464,32; 1312,000;  832,000;    0,000
 464,61; 1584,000; 1248,000;    0,000
 464,89; 1441,000; 1101,000;    0,000
 465,17; 1937,000; 1514,000;    0,000
 465,46; 1560,000; 1159,000;    0,000
 465,74; 1153,000;  683,000;    0,000
 466,03; 1238,000;  963,000;    0,000
 466,31; 1298,000;  833,000;    0,000
 466,59; 1639,000; 1150,000;    0,000
 466,88; 1527,000;  912,000;    0,000
 467,16; 1601,000; 1179,000;    0,000
 467,44; 1450,000;  988,000;    0,000
 467,73; 1233,000;  798,000;    0,000
 468,01; 1875,000; 1138,000;    0,000
 468,30; 1576,000; 1189,000;    0,000
 468,58; 1704,000; 1308,000;    0,000
 468,86; 1243,000;  815,000;    0,000
 469,15; 1636,000; 1082,000;    0,000
 469,43; 1134,000;  674,000;    0,000
 469,71; 1671,000; 1095,000;    0,000
 470,00; 1220,000;  781,000;    0,000
 470,28; 1439,000;  800,000;    0,000
 470,56; 1774,000; 1276,000;    0,000
 470,85; 1806,000; 1232,000;    0,000
 471,13; 1270,000;  777,000;    0,000
 471,41; 1443,000;  791,000;    0,000
 471,70; 1412,000; 1107,000;    0,000
 471,98; 2286,000; 1945,000;    0,000
 472,26; 1571,000; 1105,000;    0,000
 472,55; 1200,000;  649,000;    0,000
 472,83; 1446,000;  919,000;    0,000
 473,11; 1671,000; 1236,000;    0,000
 473,40; 1667,000; 1188,000;    0,000
 473,68; 2091,000; 1407,000;    0,000
 473,96; 1482,000; 1298,000;    0,000
 474,25; 1620,000;  930,000;    0,000
 474,53; 1370,000;  845,000;    0,000
 474,81; 1499,000; 1171,000;    0,000
 475,10; 1588,000; 1097,000;    0,000
 475,38; 1782,000; 1476,000;    0,000
 475,66; 1482,000; 1098,000;    0,000
 475,94; 1534,000; 1195,000;    0,000
 476,23; 2284,000; 1903,000;    0,000
 476,51; 1631,000; 1219,000;    0,000
 476,79; 1337,000;  937,000;    0,000
 477,08; 1632,000; 1346,000;    0,000
 477,36; 1761,000; 1097,000;    0,000
 477,64; 1703,000; 1162,000;    0,000
 477,92; 2018,000; 1203,000;    0,000
 478,21; 1358,000;  647,000;    0,000
 478,49; 2000,000; 1564,000;    0,000
 478,77; 1578,000;  985,000;    0,000
 479,06; 1580,000; 1000,000;    0,000
 479,34; 1526,000;  918,000;    0,000
 479,62; 1751,000; 1015,000;    0,000
 479,90; 1683,000; 1047,000;    0,000
 480,19; 1997,000; 1490,000;    0,000
 480,47; 1677,000; 1039,000;    0,000
 480,75; 1437,000;  984,000;    0,000
 481,03; 1951,000; 1256,000;    0,000
 481,32; 1744,000; 1199,000;    0,000
 481,60; 1738,000; 1018,000;    0,000
 481,88; 1769,000; 1195,000;    0,000
 482,16; 1780,000;  869,000;    0,000
 482,45; 1698,000;  675,000;    0,000
 482,73; 1943,000; 1188,000;    0,000
 483,01; 2031,000; 1472,000;    0,000
 483,29; 1618,000; 1062,000;    0,000
 483,58; 2330,000; 1904,000;    0,000
 483,86; 2048,000; 1244,000;    0,000
 484,14; 1850,000; 1077,000;    0,000
 484,42; 1841,000; 1037,000;    0,000
 484,71; 1767,000; 1262,000;    0,000
 484,99; 1858,000; 1169,000;    0,000
 485,27; 1710,000;  885,000;    0,000
 485,55; 2016,000; 1219,000;    0,000
 485,83; 1701,000; 1028,000;    0,000
 486,12; 1893,000; 1034,000;    0,000
 486,40; 1767,000; 1328,000;    0,000
 486,68; 2004,000; 1407,000;    0,000
 486,96; 1506,000;  969,000;    0,000
 487,24; 1796,000;  967,000;    0,000
 487,53; 1625,000;  886,000;    0,000
 487,81; 1929,000; 1263,000;    0,000
 488,09; 1634,000; 1023,000;    0,000
 488,37; 2166,000; 1573,000;    0,000
 488,65; 1804,000; 1241,000;    0,000
 488,94; 1840,000; 1244,000;    0,000
 489,22; 1439,000; 1003,000;    0,000
 489,50; 1914,000; 1590,000;    0,000
 489,78; 1501,000; 1072,000;    0,000
 490,06; 1829,000; 1185,000;    0,000
 490,34; 1296,000;  807,000;    0,000
 490,63; 1761,000; 1068,000;    0,000
 490,91; 1343,000;  798,000;    0,000
 491,19; 1858,000; 1047,000;    0,000
 491,47; 1699,000; 1022,000;    0,000
 491,75; 1537,000; 1108,000;    0,000
 492,04; 1679,000; 1019,000;    0,000
 492,32; 2309,000; 1572,000;    0,000
 492,60; 1991,000; 1277,000;    0,000
 492,88; 1291,000;  546,000;    0,000
 493,16; 1671,000; 1183,000;    0,000
 493,44; 1721,000; 1190,000;    0,000
 493,72; 1813,000; 1215,000;    0,000
 494,01; 1901,000; 1253,000;    0,000
 494,29; 1402,000;  670,000;    0,000
 494,57; 1605,000;  978,000;    0,000
 494,85; 1849,000; 1096,000;    0,000
 495,13; 1708,000; 1000,000;    0,000
 495,41; 1697,000; 1100,000;    0,000
 495,69; 1744,000;  984,000;    0,000
 495,98; 2129,000; 1656,000;    0,000
 496,26; 2060,000; 1577,000;    0,000
 496,54; 1562,000;  881,000;    0,000
 496,82; 1770,000; 1181,000;    0,000
 497,10; 1498,000;  793,000;    0,000
 497,38; 1888,000; 1119,000;    0,000
 497,66; 1318,000;  570,000;    0,000
 497,94; 1648,000;  979,000;    0,000
 498,22; 1357,000; 1214,000;    0,000
 498,51; 1712,000;  931,000;    0,000
 498,79; 1830,000; 1581,000;    0,000
 499,07; 1454,000;  894,000;    0,000
 499,35; 1318,000;  727,000;    0,000
 499,63; 1692,000;  880,000;    0,000
 499,91; 1662,000; 1169,000;    0,000
 500,19; 1820,000; 1241,000;    0,000
 500,47; 1463,000;  728,000;    0,000
 500,75; 1786,000; 1050,000;    0,000
 501,03; 1756,000; 1307,000;    0,000
 501,31; 1972,000; 1267,000;    0,000
 501,60; 1824,000; 1486,000;    0,000
 501,88; 1603,000;  881,000;    0,000
 502,16; 1837,000; 1204,000;    0,000
 502,44; 1687,000; 1392,000;    0,000
 502,72; 1478,000; 1057,000;    0,000
 503,00; 1721,000; 1416,000;    0,000
 503,28; 1398,000;  914,000;    0,000
 503,56; 1300,000;  821,000;    0,000
 503,84; 1420,000; 1049,000;    0,000
 504,12; 1752,000; 1353,000;    0,000
 504,40; 1305,000; 1011,000;    0,000
 504,68; 1232,000;  800,000;    0,000
 504,96; 1418,000;  796,000;    0,000
 505,24; 1929,000; 1769,000;    0,000
 505,52; 1518,000; 1142,000;    0,000
 505,80; 1592,000; 1290,000;    0,000
 506,08; 1496,000; 1035,000;    0,000
 506,36; 1672,000; 1397,000;    0,000
 506,65; 1311,000; 1388,000;    0,000
 506,93; 1782,000; 1568,000;    0,000
 507,21; 1496,000; 1160,000;    0,000
 507,49; 1621,000; 1362,000;    0,000
 507,77; 1226,000; 1248,000;    0,000
 508,05; 1673,000; 1345,000;    0,000
 508,33; 1453,000; 1441,000;    0,000
 508,61; 1533,000; 1199,000;    0,000
 508,89; 1425,000; 1634,000;    0,000
 509,17; 1314,000; 1345,000;    0,000
 509,45; 1461,000; 1494,000;    0,000
 509,73; 1172,000; 1355,000;    0,000
 510,01; 1373,000; 1561,000;    0,000
 510,29; 1620,000; 1762,000;    0,000
 510,57; 1377,000; 1536,000;    0,000
 510,85; 1678,000; 1862,000;    0,000
 511,13; 1354,000; 1795,000;    0,000
 511,41; 1614,000; 1925,000;    0,000
 511,69; 1458,000; 2082,000;    0,000
 511,97; 1412,000; 2019,000;    0,000
 512,25; 1497,000; 2184,000;    0,000
 512,53; 1312,000; 1794,000;    0,000
 512,81; 1467,000; 2290,000;    0,000
 513,09; 1816,000; 2336,000;    0,000
 513,37; 1232,000; 1747,000;    0,000
 513,65; 1624,000; 2511,000;    0,000
 513,93; 1380,000; 2228,000;    0,000
 514,21; 1631,000; 2416,000;    0,000
 514,48;  872,000; 2059,000;    0,000
 514,76; 1633,000; 2942,000;    0,000
 515,04; 1408,000; 2545,000;    0,000
 515,32; 1685,000; 3095,000;    0,000
 515,60;  980,000; 2559,000;    0,000
 515,88; 1715,000; 3136,000;    0,000
 516,16; 1139,000; 2606,000;    0,000
 516,44; 1591,000; 3081,000;    0,000
 516,72; 1333,000; 3141,000;    0,000
 517,00; 1865,000; 3828,000;    0,000
 517,28; 1530,000; 3197,000;    0,000
 517,56; 1609,000; 3820,000;    0,000
 517,84; 1500,000; 3676,000;    0,000
 518,12; 1592,000; 3803,000;    0,000
 518,40; 1163,000; 3627,000;    0,000
 518,68; 1284,000; 3749,000;    0,000
 518,96; 1235,000; 3771,000;    0,000
 519,23; 1799,000; 4397,000;    0,000
 519,51; 1640,000; 4469,000;    0,000
 519,79; 1629,000; 4456,000;    0,000
 520,07; 2288,000; 5776,000;    0,000
 520,35; 1461,000; 4760,000;    0,000
 520,63; 1708,000; 5546,000;    0,000
 520,91; 1831,000; 5251,000;    0,000
 521,19; 1415,000; 5085,000;    0,000
 521,47; 1651,000; 5583,000;    0,000
 521,75; 1317,000; 5677,000;    0,000
 522,03; 1753,000; 5938,000;    0,000
 522,30; 1690,000; 6007,000;    0,000
 522,58; 1509,000; 5977,000;    0,000
 522,86; 1494,000; 6549,000;    0,000
 523,14; 1400,000; 6339,000;    0,000
 523,42; 1449,000; 6334,000;    0,000
 523,70; 1602,000; 6814,000;    0,000
 523,98; 1777,000; 7436,000;    0,000
 524,26; 1660,000; 7677,000;    0,000
 524,54; 2422,000; 8267,000;    0,000
 524,81; 1838,000; 8256,000;    0,000
 525,09; 1715,000; 8178,000;    0,000
 525,37; 1358,000; 7717,000;    0,000
 525,65; 1816,000; 8142,000;    0,000
 525,93; 1956,000; 8888,000;    0,000
 526,21; 1747,000; 8987,000;    0,000
 526,49; 1415,000; 9278,000;    0,000
 526,76; 1221,000; 9214,000;    0,000
 527,04; 1653,000; 9938,000;    0,000
 527,32; 1650,000; 9701,000;    0,000
 527,60; 1733,000;10536,000;    0,000
 527,88; 1526,000;10248,000;    0,000
 528,16; 1748,000;10856,000;    0,000
 528,44; 1529,000;11050,000;    0,000
 528,71; 2058,000;11907,000;    0,000
 528,99; 1443,000;11363,000;    0,000
 529,27; 1608,000;11647,000;    0,000
 529,55; 1508,000;12481,000;    0,000
 529,83; 2174,000;12964,000;    0,000
 530,11; 1833,000;13649,000;    0,000
 530,38; 1467,000;13582,000;    0,000
 530,66; 1440,000;13373,000;    0,000
 530,94; 1529,000;13937,000;    0,000
 531,22; 2059,000;14921,000;    0,000
 531,50; 2026,000;15401,000;    0,000
 531,77; 1730,000;15630,000;    0,000
 532,05; 1785,000;15619,000;    0,000
 532,33; 1813,000;15592,000;    0,000
 532,61; 1721,000;15765,000;    0,000
 532,89; 2173,000;17278,000;    0,000
 533,16; 1852,000;17114,000;    0,000
 533,44; 1917,000;17187,000;    0,000
 533,72; 2034,000;18127,000;    0,000
 534,00; 1895,000;18238,000;    0,000
 534,28; 1800,000;18714,000;    0,000
 534,55; 2004,000;18950,000;    0,000
 534,83; 2126,000;19930,000;    0,000
 535,11; 2467,000;20731,000;    0,000
 535,39; 1995,000;21072,000;    0,000
 535,66; 1682,000;21072,000;    0,000
 535,94; 1815,000;21364,000;    0,000
 536,22; 2049,000;21940,000;    0,000
 536,50; 2009,000;22480,000;    0,000
 536,78; 2038,000;22709,000;    0,000
 537,05; 2650,000;23687,000;    0,000
 537,33; 2120,000;23579,000;    0,000
 537,61; 1980,000;24523,000;    0,000
 537,89; 1807,000;25001,000;    0,000
 538,16; 2072,000;25281,000;    0,000
 538,44; 2207,000;25983,000;    0,000
 538,72; 2361,000;27302,000;    0,000
 539,00; 2380,000;26819,000;    0,000
 539,27; 2239,000;28171,000;    0,000
 539,55; 2232,000;28236,000;    0,000
 539,83; 2117,000;29092,000;    0,000
 540,11; 2039,000;28720,000;    0,000
 540,38; 2683,000;30618,000;    0,000
 540,66; 2670,000;31415,000;    0,000
 540,94; 2463,000;30709,000;    0,000
 541,21; 2255,000;31581,000;    0,000
 541,49; 2237,000;31463,000;    0,000
 541,77; 2716,000;32646,000;    0,000
 542,05; 2534,000;33736,000;    0,000
 542,32; 2562,000;34120,000;    0,000
 542,60; 2853,000;35301,000;    0,000
 542,88; 2405,000;35213,000;    0,000
 543,15; 2685,000;35794,000;    0,000
 543,43; 2309,000;36443,000;    0,000
 543,71; 2684,000;37173,000;    0,000
 543,98; 2701,000;37700,000;    0,000
 544,26; 2734,000;38589,000;    0,000
 544,54; 2779,000;39366,000;    0,000
 544,82; 2968,000;39588,000;    0,000
 545,09; 2560,000;40032,000;    0,000
 545,37; 2678,000;40831,000;    0,000
 545,65; 2737,000;41062,000;    0,000
 545,92; 2555,000;41476,000;    0,000
 546,20; 2188,000;41717,000;    0,000
 546,48; 3033,000;42987,000;    0,000
 546,75; 3183,000;43555,000;    0,000
 547,03; 2854,000;43568,000;    0,000
 547,31; 2812,000;44163,000;    0,000
 547,58; 2549,000;44851,000;    0,000
 547,86; 2907,000;45553,000;    0,000
 548,14; 2803,000;46050,000;    0,000
 548,41; 2747,000;47173,000;    0,000
 548,69; 2971,000;47310,000;    0,000
 548,97; 2743,000;47961,000;    0,000
 549,24; 2653,000;48039,000;    0,000
 549,52; 3044,000;49120,000;    0,000
 549,80; 2819,000;49063,000;    0,000
 550,07; 2592,000;49890,000;    0,000
 550,35; 2765,000;49777,000;    0,000
 550,62; 2755,000;50421,000;    0,000
 550,90; 2719,000;51281,000;    0,000
 551,18; 2610,000;51315,000;    0,000
 551,45; 2827,000;52820,000;    0,000
 551,73; 2633,000;52194,000;    0,000
 552,01; 2969,000;53145,000;    0,000
 552,28; 2606,000;53432,000;    0,000
 552,56; 2906,000;53936,000;    0,000
 552,83; 2504,000;53919,000;    0,000
 553,11; 2880,000;54790,000;    0,000
 553,39; 4097,000;56254,000;    0,000
 553,66; 2920,000;55547,000;    0,000
 553,94; 2577,000;54985,000;    0,000
 554,22; 3005,000;56210,000;    0,000
 554,49; 2594,000;55416,000;    0,000
 554,77; 3050,000;56724,000;    0,000
 555,04; 2820,000;56291,000;    0,000
 555,32; 2612,000;56725,000;    0,000
 555,59; 2851,000;57306,000;    0,000
 555,87; 3358,000;57517,000;    0,000
 556,15; 2801,000;57863,000;    0,000
 556,42; 3099,000;57232,000;    0,000
 556,70; 2596,000;57520,000;    0,000
 556,97; 2829,000;57942,000;    0,000
 557,25; 2639,000;57428,000;    0,000
 557,53; 2966,000;58122,000;    0,000
 557,80; 2814,000;57741,000;    0,000
 558,08; 2941,000;58813,000;    0,000
 558,35; 2777,000;58584,000;    0,000
 558,63; 3037,000;58539,000;    0,000
 558,90; 3497,000;58924,000;    0,000
 559,18; 3544,000;58423,000;    0,000
 559,45; 3159,000;58098,000;    0,000
 559,73; 3106,000;58663,000;    0,000
 560,01; 3145,000;59019,000;    0,000
 560,28; 3014,000;58261,000;    0,000
 560,56; 2774,000;59041,000;    0,000
 560,83; 3733,000;58234,000;    0,000
 561,11; 3249,000;58589,000;    0,000
 561,38; 3064,000;58484,000;    0,000
 561,66; 3461,000;58334,000;    0,000
 561,93; 3720,000;57989,000;    0,000
 562,21; 2785,000;57480,000;    0,000
 562,48; 3534,000;58567,000;    0,000
 562,76; 3802,000;58147,000;    0,000
 563,03; 3870,000;57790,000;    0,000
 563,31; 3964,000;58248,000;    0,000
 563,58; 3832,000;57371,000;    0,000
 563,86; 3403,000;56991,000;    0,000
 564,13; 3716,000;57768,000;    0,000
 564,41; 3463,000;56078,000;    0,000
 564,68; 3845,000;55889,000;    0,000
 564,96; 3624,000;55503,000;    0,000
 565,23; 3811,000;56270,000;    0,000
 565,51; 3662,000;54991,000;    0,000
 565,78; 4089,000;55314,000;    0,000
 566,06; 3593,000;54666,000;    0,000
 566,33; 4519,000;55070,000;    0,000
 566,61; 4420,000;54876,000;    0,000
 566,88; 3746,000;54222,000;    0,000
 567,16; 4315,000;53574,000;    0,000
 567,43; 4276,000;53802,000;    0,000
 567,71; 3820,000;52192,000;    0,000
 567,98; 4043,000;52451,000;    0,000
 568,26; 3805,000;51768,000;    0,000
 568,53; 4417,000;51500,000;    0,000
 568,81; 4062,000;51300,000;    0,000
 569,08; 4049,000;49963,000;    0,000
 569,36; 3786,000;49381,000;    0,000
 569,63; 4064,000;49107,000;    0,000
 569,91; 4137,000;48993,000;    0,000
 570,18; 4382,000;48793,000;    0,000
 570,45; 4395,000;48175,000;    0,000
 570,73; 4204,000;47853,000;    0,000
 571,00; 4760,000;46915,000;    0,000
 571,28; 4602,000;46313,000;    0,000
 571,55; 4763,000;47116,000;    0,000
 571,83; 4807,000;46390,000;    0,000
 572,10; 4902,000;45600,000;    0,000
 572,38; 5223,000;45434,000;    0,000
 572,65; 4741,000;44038,000;    0,000
 572,92; 5529,000;43897,000;    0,000
 573,20; 5552,000;43456,000;    0,000
 573,47; 5198,000;42643,000;    0,000
 573,75; 5450,000;41350,000;    0,000
 574,02; 5614,000;41856,000;    0,000
 574,29; 5353,000;41610,000;    0,000
 574,57; 5359,000;39789,000;    0,000
 574,84; 5897,000;40617,000;    0,000
 575,12; 5590,000;39762,000;    0,000
 575,39; 5775,000;39221,000;    0,000
 575,66; 5756,000;38302,000;    0,000
 575,94; 6020,000;38208,000;    0,000
 576,21; 6126,000;36707,000;    0,000
 576,49; 6359,000;37170,000;    0,000
 576,76; 6467,000;36167,000;    0,000
 577,03; 6042,000;35080,000;    0,000
 577,31; 6283,000;35565,000;    0,000
 577,58; 6411,000;34755,000;    0,000
 577,86; 6649,000;34410,000;    0,000
 578,13; 6736,000;33671,000;    0,000
 578,40; 6934,000;34099,000;    0,000
 578,68; 7090,000;32372,000;    0,000
 578,95; 7309,000;32100,000;    0,000
 579,22; 7547,000;32474,000;    0,000
 579,50; 7121,000;30908,000;    0,000
 579,77; 7167,000;30321,000;    0,000
 580,05; 7332,000;30637,000;    0,000
 580,32; 7507,000;29683,000;    0,000
 580,59; 7747,000;29998,000;    0,000
 580,87; 7899,000;28549,000;    0,000
 581,14; 7729,000;28457,000;    0,000
 581,41; 7864,000;27574,000;    0,000
 581,69; 8203,000;27204,000;    0,000
 581,96; 8630,000;27366,000;    0,000
 582,23; 8683,000;26801,000;    0,000
 582,51; 8615,000;26236,000;    0,000
 582,78; 9165,000;26658,000;    0,000
 583,05; 8772,000;24697,000;    0,000
 583,33; 8982,000;24742,000;    0,000
 583,60; 8852,000;23914,000;    0,000
 583,87; 9757,000;23819,000;    0,000
 584,15; 9603,000;24000,000;    0,000
 584,42; 9819,000;22679,000;    0,000
 584,69;10439,000;23158,000;    0,000
 584,96;10191,000;21252,000;    0,000
 585,24;10233,000;21659,000;    0,000
 585,51;10525,000;20901,000;    0,000
 585,78;10546,000;20193,000;    0,000
 586,06;11233,000;20858,000;    0,000
 586,33;11326,000;20471,000;    0,000
 586,60;11314,000;19536,000;    0,000
 586,88;11023,000;19434,000;    0,000
 587,15;11264,000;19385,000;    0,000
 587,42;11567,000;18312,000;    0,000
 587,69;12354,000;18042,000;    0,000
 587,97;12651,000;18361,000;    0,000
 588,24;13697,000;18130,000;    0,000
 588,51;13088,000;17276,000;    0,000
 588,79;13661,000;17153,000;    0,000
 589,06;14191,000;16922,000;    0,000
 589,33;14203,000;16123,000;    0,000
 589,60;13813,000;16020,000;    0,000
 589,88;14207,000;16053,000;    0,000
 590,15;14921,000;16054,000;    0,000
 590,42;15341,000;15120,000;    0,000
 590,69;14914,000;14831,000;    0,000
 590,97;16034,000;14593,000;    0,000
 591,24;15466,000;13726,000;    0,000
 591,51;16476,000;13986,000;    0,000
 591,78;16405,000;13757,000;    0,000
 592,06;17498,000;13626,000;    0,000
 592,33;17087,000;12484,000;    0,000
 592,60;17530,000;13090,000;    0,000
 592,87;17314,000;11836,000;    0,000
 593,15;18092,000;12677,000;    0,000
 593,42;18961,000;12896,000;    0,000
 593,69;18939,000;12169,000;    0,000
 593,96;19183,000;11386,000;    0,000
 594,23;20544,000;12067,000;    0,000
 594,51;19782,000;10434,000;    0,000
 594,78;20884,000;11027,000;    0,000
 595,05;20666,000;10304,000;    0,000
 595,32;21369,000;10810,000;    0,000
 595,59;21724,000;10055,000;    0,000
 595,87;22470,000; 9682,000;    0,000
 596,14;22354,000; 9587,000;    0,000
 596,41;23370,000; 9953,000;    0,000
 596,68;23129,000; 8896,000;    0,000
 596,95;24465,000; 9110,000;    0,000
 597,23;24323,000; 8842,000;    0,000
 597,50;24956,000; 8770,000;    0,000
 597,77;25787,000; 9422,000;    0,000
 598,04;25642,000; 8385,000;    0,000
 598,31;26883,000; 8634,000;    0,000
 598,59;27565,000; 8264,000;    0,000
 598,86;27380,000; 8246,000;    0,000
 599,13;27965,000; 7076,000;    0,000
 599,40;29339,000; 8034,000;    0,000
 599,67;28863,000; 7332,000;    0,000
 599,94;29271,000; 6949,000;    0,000
 600,22;30567,000; 7394,000;    0,000
 600,49;30741,000; 6533,000;    0,000
 600,76;31181,000; 6472,000;    0,000
 601,03;31650,000; 6293,000;    0,000
 601,30;32653,000; 6445,000;    0,000
 601,57;33740,000; 6366,000;    0,000
 601,84;34138,000; 7195,000;    0,000
 602,12;33995,000; 5817,000;    0,000
 602,39;34816,000; 6101,000;    0,000
 602,66;35315,000; 6090,000;    0,000
 602,93;36645,000; 5922,000;    0,000
 603,20;36797,000; 5601,000;    0,000
 603,47;38351,000; 5407,000;    0,000
 603,74;37934,000; 5064,000;    0,000
 604,02;38847,000; 5534,000;    0,000
 604,29;39103,000; 5308,000;    0,000
 604,56;39340,000; 4531,000;    0,000
 604,83;40722,000; 4773,000;    0,000
 605,10;41372,000; 4687,000;    0,000
 605,37;41518,000; 4610,000;    0,000
 605,64;43085,000; 4767,000;    0,000
 605,91;43614,000; 4597,000;    0,000
 606,18;43834,000; 4053,000;    0,000
 606,45;43962,000; 3789,000;    0,000
 606,73;45536,000; 4230,000;    0,000
 607,00;45761,000; 3867,000;    0,000
 607,27;46850,000; 3567,000;    0,000
 607,54;47013,000; 3926,000;    0,000
 607,81;47846,000; 4069,000;    0,000
 608,08;47886,000; 3474,000;    0,000
 608,35;49190,000; 3754,000;    0,000
 608,62;49857,000; 3243,000;    0,000
 608,89;50288,000; 3472,000;    0,000
 609,16;50517,000; 3722,000;    0,000
 609,43;51786,000; 4008,000;    0,000
 609,70;51091,000; 3498,000;    0,000
 609,97;53324,000; 2796,000;    0,000
 610,25;52312,000; 3105,000;    0,000
 610,52;53628,000; 2654,000;    0,000
 610,79;54085,000; 2499,000;    0,000
 611,06;54813,000; 2850,000;    0,000
 611,33;54934,000; 2639,000;    0,000
 611,60;55677,000; 3033,000;    0,000
 611,87;55350,000; 2552,000;    0,000
 612,14;56034,000; 2518,000;    0,000
 612,41;56731,000; 2304,000;    0,000
 612,68;57180,000; 2528,000;    0,000
 612,95;57379,000; 2372,000;    0,000
 613,22;59130,000; 2973,000;    0,000
 613,49;57941,000; 2096,000;    0,000
 613,76;58769,000; 2197,000;    0,000
 614,03;59160,000; 1919,000;    0,000
 614,30;59981,000; 2609,000;    0,000
 614,57;59955,000; 2096,000;    0,000
 614,84;60540,000; 2063,000;    0,000
 615,11;60739,000; 2084,000;    0,000
 615,38;61521,000; 2004,000;    0,000
 615,65;61503,000; 2186,000;    0,000
 615,92;61991,000; 1951,000;    0,000
 616,19;61602,000; 2017,000;    0,000
 616,46;62329,000; 1909,000;    0,000
 616,73;62101,000; 2099,000;    0,000
 617,00;63227,000; 2336,000;    0,000
 617,27;62722,000; 2001,000;    0,000
 617,54;63282,000; 2021,000;    0,000
 617,81;63587,000; 1678,000;    0,000
 618,08;63006,000; 1770,000;    0,000
 618,35;62758,000; 1531,000;    0,000
 618,62;63888,000; 2073,000;    0,000
 618,89;63653,000; 1594,000;    0,000
 619,16;63043,000; 1172,000;    0,000
 619,43;62693,000; 1380,000;    0,000
 619,70;63216,000; 1268,000;    0,000
 619,97;63366,000; 1776,000;    0,000
 620,24;63888,000; 2004,000;    0,000
 620,51;62498,000; 1163,000;    0,000
 620,78;63522,000; 1283,000;    0,000
 621,05;61994,000; 1443,000;    0,000
 621,32;63176,000; 1453,000;    0,000
 621,59;62235,000; 1243,000;    0,000
 621,86;63138,000; 1914,000;    0,000
 622,12;62195,000; 1961,000;    0,000
 622,39;61668,000; 1446,000;    0,000
 622,66;61050,000; 1118,000;    0,000
 622,93;61123,000;  870,000;    0,000
 623,20;60639,000;  946,000;    0,000
 623,47;60593,000;  905,000;    0,000
 623,74;60232,000; 1014,000;    0,000
 624,01;60246,000;  852,000;    0,000
 624,28;59652,000; 1048,000;    0,000
 624,55;60077,000;  806,000;    0,000
 624,82;58835,000;  956,000;    0,000
 625,09;59123,000;  988,000;    0,000
 625,36;58141,000; 1091,000;    0,000
 625,62;58527,000; 1283,000;    0,000
 625,89;56541,000;  764,000;    0,000
 626,16;57293,000;  833,000;    0,000
 626,43;55746,000;  803,000;    0,000
 626,70;56106,000; 1198,000;    0,000
 626,97;55212,000;  847,000;    0,000
 627,24;54776,000;  973,000;    0,000
 627,51;54177,000;  442,000;    0,000
 627,78;53610,000;  638,000;    0,000
 628,04;52611,000; 1074,000;    0,000
 628,31;52197,000;  742,000;    0,000
 628,58;52936,000; 1304,000;    0,000
 628,85;51346,000;  472,000;    0,000
 629,12;50871,000;  904,000;    0,000
 629,39;49997,000;  622,000;    0,000
 629,66;49679,000; 1332,000;    0,000
 629,93;48567,000;  831,000;    0,000
 630,19;48269,000;  403,000;    0,000
 630,46;47491,000;  525,000;    0,000
 630,73;46785,000;  700,000;    0,000
 631,00;45985,000;  693,000;    0,000
 631,27;45980,000;  737,000;    0,000
 631,54;44374,000;  414,000;    0,000
 631,80;44706,000;  548,000;    0,000
 632,07;42710,000;  401,000;    0,000
 632,34;42545,000;  558,000;    0,000
 632,61;41813,000;  543,000;    0,000
 632,88;41533,000;  392,000;    0,000
 633,15;40496,000;  565,000;    0,000
 633,41;39695,000;  736,000;    0,000
 633,68;39288,000;  626,000;    0,000
 633,95;38875,000;  433,000;    0,000
 634,22;37922,000;  353,000;    0,000
 634,49;37914,000;  326,000;    0,000
 634,76;37871,000; 1167,000;    0,000
 635,02;36338,000;  446,000;    0,000
 635,29;35491,000;  567,000;    0,000
 635,56;34961,000;  464,000;    0,000
 635,83;35246,000;  898,000;    0,000
 636,10;33284,000;  233,000;    0,000
 636,36;33418,000;  724,000;    0,000
 636,63;32178,000;  301,000;    0,000
 636,90;31658,000;  773,000;    0,000
 637,17;31343,000;  230,000;    0,000
 637,43;29773,000;  199,000;    0,000
 637,70;30195,000; 1135,000;    0,000
 637,97;30004,000; 1259,000;    0,000
 638,24;29055,000;  972,000;    0,000
 638,51;28157,000;  246,000;    0,000
 638,77;27323,000;  531,000;    0,000
 639,04;27067,000;  866,000;    0,000
 639,31;25858,000;  393,000;    0,000
 639,58;26007,000;  471,000;    0,000
 639,84;25231,000;  582,000;    0,000
 640,11;24547,000;  368,000;    0,000
 640,38;24198,000;  368,000;    0,000
 640,65;24122,000;  985,000;    0,000
 640,91;22908,000;  609,000;    0,000
 641,18;22623,000;  484,000;    0,000
 641,45;22774,000;  993,000;    0,000
 641,72;22170,000;  773,000;    0,000
 641,98;21191,000;  528,000;    0,000
 642,25;20689,000;  569,000;    0,000
 642,52;20652,000;  531,000;    0,000
 642,78;19796,000;  279,000;    0,000
 643,05;19293,000;  602,000;    0,000
 643,32;19037,000;  669,000;    0,000
 643,59;17917,000;  244,000;    0,000
 643,85;18289,000;  476,000;    0,000
 644,12;17718,000;  653,000;    0,000
 644,39;17108,000;  258,000;    0,000
 644,65;17059,000;  538,000;    0,000
 644,92;16366,000;  235,000;    0,000
 645,19;16011,000;  519,000;    0,000
 645,46;16150,000;  703,000;    0,000
 645,72;15440,000;  644,000;    0,000
 645,99;14927,000;  598,000;    0,000
 646,26;14249,000;  113,000;    0,000
 646,52;14971,000;  574,000;    0,000
 646,79;14095,000;  217,000;    0,000
 647,06;13335,000;  653,000;    0,000
 647,32;13304,000;  466,000;    0,000
 647,59;14004,000; 1007,000;    0,000
 647,86;13308,000; 1024,000;    0,000
 648,12;12953,000;  547,000;    0,000
 648,39;12118,000;  604,000;    0,000
 648,66;11949,000;  578,000;    0,000
 648,92;11060,000;  237,000;    0,000
 649,19;11627,000; 1025,000;    0,000
 649,46;11137,000;  341,000;    0,000
 649,72;11254,000; 1007,000;    0,000
 649,99;10711,000;  402,000;    0,000
 650,26;10723,000;  611,000;    0,000
 650,52;10382,000;  806,000;    0,000
 650,79;10262,000;  453,000;    0,000
 651,06; 9967,000;  849,000;    0,000
 651,32; 9523,000;  392,000;    0,000
 651,59; 9094,000;   85,000;    0,000
 651,85; 9318,000;  526,000;    0,000
 652,12; 8747,000;  424,000;    0,000
 652,39; 8737,000;  519,000;    0,000
 652,65; 8288,000;  579,000;    0,000
 652,92; 8652,000;  967,000;    0,000
 653,19; 8651,000;  852,000;    0,000
 653,45; 8221,000;  677,000;    0,000
 653,72; 7815,000;  659,000;    0,000
 653,98; 8059,000;  756,000;    0,000
 654,25; 8002,000; 1337,000;    0,000
 654,52; 8095,000; 1223,000;    0,000
 654,78; 7757,000; 1032,000;    0,000
 655,05; 8327,000; 1120,000;    0,000
 655,31; 7336,000; 1275,000;    0,000
 655,58; 7084,000;  761,000;    0,000
 655,85; 6900,000;  681,000;    0,000
 656,11; 6772,000;  613,000;    0,000
 656,38; 6824,000;  611,000;    0,000
 656,64; 6503,000;  542,000;    0,000
 656,91; 7052,000; 1120,000;    0,000
 657,18; 6011,000;  571,000;    0,000
 657,44; 6156,000;  482,000;    0,000
 657,71; 5659,000;  432,000;    0,000
 657,97; 5776,000;  608,000;    0,000
 658,24; 6537,000; 1125,000;    0,000
 658,50; 6014,000;  853,000;    0,000
 658,77; 5921,000; 1054,000;    0,000
 659,03; 5898,000;  777,000;    0,000
 659,30; 6171,000; 1209,000;    0,000
 659,57; 5699,000;  562,000;    0,000
 659,83; 5326,000;  573,000;    0,000
 660,10; 5775,000;  994,000;    0,000
 660,36; 5734,000;  747,000;    0,000
 660,63; 5402,000;  836,000;    0,000
 660,89; 5311,000;  582,000;    0,000
 661,16; 5071,000;  894,000;    0,000
 661,42; 5587,000; 1012,000;    0,000
 661,69; 5211,000;  841,000;    0,000
 661,95; 4958,000;  733,000;    0,000
 662,22; 4840,000;  612,000;    0,000
 662,48; 5209,000; 1048,000;    0,000
 662,75; 4804,000;  855,000;    0,000
 663,01; 5289,000; 1107,000;    0,000
 663,28; 4931,000;  972,000;    0,000
 663,54; 5073,000; 1025,000;    0,000
 663,81; 4931,000; 1005,000;    0,000
 664,07; 5103,000; 1194,000;    0,000
 664,34; 5089,000; 1365,000;    0,000
 664,60; 6775,000; 3039,000;    0,000
 664,87; 4439,000;  894,000;    0,000
 665,13; 4591,000; 1071,000;    0,000
 665,40; 4674,000;  944,000;    0,000
 665,66; 4662,000;  763,000;    0,000
 665,93; 4796,000;  933,000;    0,000
 666,19; 5323,000; 1824,000;    0,000
 666,46; 4756,000; 1375,000;    0,000
 666,72; 4650,000; 1385,000;    0,000
 666,99; 4289,000;  655,000;    0,000
 667,25; 4511,000; 1129,000;    0,000
 667,52; 4648,000; 1091,000;    0,000
 667,78; 4315,000;  762,000;    0,000
 668,05; 4547,000; 1344,000;    0,000
 668,31; 4424,000; 1198,000;    0,000
 668,57; 4638,000; 1416,000;    0,000
 668,84; 4835,000; 1686,000;    0,000
 669,10; 4710,000; 1348,000;    0,000
 669,37; 4179,000; 1169,000;    0,000
 669,63; 4154,000; 1048,000;    0,000
 669,90; 4422,000;  943,000;    0,000
 670,16; 4584,000; 1442,000;    0,000
 670,43; 4470,000; 1157,000;    0,000
 670,69; 4652,000; 1800,000;    0,000
 670,95; 4180,000;  993,000;    0,000
 671,22; 4217,000; 1113,000;    0,000
 671,48; 4719,000; 1256,000;    0,000
 671,75; 4375,000; 1396,000;    0,000
 672,01; 4571,000; 1173,000;    0,000
 672,28; 4114,000; 1042,000;    0,000
 672,54; 4280,000; 1051,000;    0,000
 672,80; 4530,000; 1603,000;    0,000
 673,07; 4481,000; 1241,000;    0,000
 673,33; 3966,000; 1100,000;    0,000
 673,60; 4256,000; 1222,000;    0,000
 673,86; 4232,000; 1331,000;    0,000
 674,12; 4490,000; 1454,000;    0,000
 674,39; 4669,000; 1786,000;    0,000
 674,65; 4390,000; 1363,000;    0,000
 674,91; 4082,000; 1258,000;    0,000
 675,18; 4311,000; 1120,000;    0,000
 675,44; 4449,000; 1654,000;    0,000
 675,71; 4198,000; 1314,000;    0,000
 675,97; 4227,000; 1213,000;    0,000
 676,23; 4558,000; 1344,000;    0,000
 676,50; 4022,000; 1081,000;    0,000
 676,76; 4566,000; 1286,000;    0,000
 677,02; 4303,000;  986,000;    0,000
 677,29; 4725,000; 1389,000;    0,000
 677,55; 4367,000; 1243,000;    0,000
 677,81; 4512,000; 1367,000;    0,000
 678,08; 3957,000; 1174,000;    0,000
 678,34; 4709,000; 1622,000;    0,000
 678,61; 3901,000; 1064,000;    0,000
 678,87; 4441,000; 1382,000;    0,000
 679,13; 3974,000;  957,000;    0,000
 679,40; 4208,000; 1342,000;    0,000
 679,66; 4033,000; 1264,000;    0,000
 679,92; 4234,000; 1195,000;    0,000
 680,18; 4393,000; 1392,000;    0,000
 680,45; 4408,000; 1463,000;    0,000
 680,71; 4084,000; 1208,000;    0,000
 680,97; 4072,000;  967,000;    0,000
 681,24; 4195,000; 1171,000;    0,000
 681,50; 5014,000; 2081,000;    0,000
 681,76; 4344,000; 1433,000;    0,000
 682,03; 4385,000; 1431,000;    0,000
 682,29; 3988,000; 1003,000;    0,000
 682,55; 4571,000; 1444,000;    0,000
 682,82; 4385,000; 1362,000;    0,000
 683,08; 4417,000; 1591,000;    0,000
 683,34; 4345,000; 1237,000;    0,000
 683,60; 4509,000; 1512,000;    0,000
 683,87; 4440,000; 1557,000;    0,000
 684,13; 4892,000; 1734,000;    0,000
 684,39; 4133,000; 1433,000;    0,000
 684,66; 4606,000; 1789,000;    0,000
 684,92; 4467,000; 1443,000;    0,000
 685,18; 4443,000; 1331,000;    0,000
 685,44; 4736,000; 1762,000;    0,000
 685,71; 4766,000; 1505,000;    0,000
 685,97; 4497,000; 1726,000;    0,000
 686,23; 4499,000; 1438,000;    0,000
 686,49; 4306,000; 1381,000;    0,000
 686,76; 4263,000; 1258,000;    0,000
 687,02; 4271,000; 1354,000;    0,000
 687,28; 4440,000; 1184,000;    0,000
 687,54; 4444,000; 1316,000;    0,000
 687,81; 4368,000; 1455,000;    0,000
 688,07; 4010,000; 1284,000;    0,000
 688,33; 4293,000; 1114,000;    0,000
 688,59; 4604,000; 1583,000;    0,000
 688,86; 4683,000; 1763,000;    0,000
 689,12; 4462,000; 1357,000;    0,000
 689,38; 4794,000; 1347,000;    0,000
 689,64; 4369,000; 1388,000;    0,000
 689,90; 4811,000; 1672,000;    0,000
 690,17; 4844,000; 1853,000;    0,000
 690,43; 4568,000; 1303,000;    0,000
 690,69; 4671,000; 1241,000;    0,000
 690,95; 5048,000; 1533,000;    0,000
 691,22; 5126,000; 1789,000;    0,000
 691,48; 4995,000; 1537,000;    0,000
 691,74; 5006,000; 1387,000;    0,000
 692,00; 5209,000; 1457,000;    0,000
 692,26; 5240,000; 1682,000;    0,000
 692,52; 5584,000; 1789,000;    0,000
 692,79; 5036,000; 1496,000;    0,000
 693,05; 5396,000; 1482,000;    0,000
 693,31; 5479,000; 1702,000;    0,000
 693,57; 5277,000; 1672,000;    0,000
 693,83; 5450,000; 1460,000;    0,000
 694,10; 5403,000; 1659,000;    0,000
 694,36; 5420,000; 1882,000;    0,000
 694,62; 5435,000; 1458,000;    0,000
 694,88; 5359,000; 1651,000;    0,000
 695,14; 5700,000; 2099,000;    0,000
 695,40; 5082,000; 1553,000;    0,000
 695,67; 5351,000; 1466,000;    0,000
 695,93; 6282,000; 2628,000;    0,000
 696,19; 5723,000; 2034,000;    0,000
 696,45; 5388,000; 1813,000;    0,000
 696,71; 5630,000; 2091,000;    0,000
 696,97; 5162,000; 1504,000;    0,000
 697,23; 5790,000; 1991,000;    0,000
 697,49; 5750,000; 1660,000;    0,000
 697,76; 5737,000; 1647,000;    0,000
 698,02; 5659,000; 1849,000;    0,000
 698,28; 5296,000; 1553,000;    0,000
 698,54; 5533,000; 1759,000;    0,000
 698,80; 5202,000; 1653,000;    0,000
 699,06; 5351,000; 1805,000;    0,000
 699,32; 5667,000; 1869,000;    0,000
 699,58; 5446,000; 1498,000;    0,000
 699,85; 5530,000; 1916,000;    0,000
 700,11; 5385,000; 1494,000;    0,000
 700,37; 5747,000; 1647,000;    0,000
 700,63; 6404,000; 1990,000;    0,000
 700,89; 6030,000; 1968,000;    0,000
 701,15; 6309,000; 1943,000;    0,000
 701,41; 6426,000; 1854,000;    0,000
 701,67; 6242,000; 1617,000;    0,000
 701,93; 6503,000; 1936,000;    0,000
 702,19; 6315,000; 1895,000;    0,000
 702,45; 6394,000; 1770,000;    0,000
 702,72; 6765,000; 2182,000;    0,000
 702,98; 6864,000; 2353,000;    0,000
 703,24; 6544,000; 1777,000;    0,000
 703,50; 6845,000; 2402,000;    0,000
 703,76; 6469,000; 1928,000;    0,000
 704,02; 6748,000; 2276,000;    0,000
 704,28; 6312,000; 1610,000;    0,000
 704,54; 6799,000; 2275,000;    0,000
 704,80; 6187,000; 1726,000;    0,000
 705,06; 6656,000; 2129,000;    0,000
 705,32; 6768,000; 1853,000;    0,000
 705,58; 6975,000; 2226,000;    0,000
 705,84; 6842,000; 1865,000;    0,000
 706,10; 6983,000; 2312,000;    0,000
 706,36; 7614,000; 2994,000;    0,000
 706,62; 6901,000; 2603,000;    0,000
 706,88; 6922,000; 1914,000;    0,000
 707,14; 7188,000; 2221,000;    0,000
 707,40; 6664,000; 1721,000;    0,000
 707,66; 6756,000; 1796,000;    0,000
 707,92; 7237,000; 1997,000;    0,000
 708,18; 6754,000; 1940,000;    0,000
 708,44; 6598,000; 1530,000;    0,000
 708,70; 7061,000; 1977,000;    0,000
 708,96; 6558,000; 2219,000;    0,000
 709,22; 7322,000; 2281,000;    0,000
 709,48; 7277,000; 2227,000;    0,000
 709,74; 7098,000; 2698,000;    0,000
 710,00; 7109,000; 2192,000;    0,000
 710,26; 6924,000; 1858,000;    0,000
 710,52; 6339,000; 1566,000;    0,000
 710,78; 6702,000; 1858,000;    0,000
 711,04; 6951,000; 2040,000;    0,000
 711,30; 6414,000; 1449,000;    0,000
 711,56; 6566,000; 1758,000;    0,000
 711,82; 7061,000; 2394,000;    0,000
 712,08; 6141,000; 1452,000;    0,000
 712,34; 6941,000; 2633,000;    0,000
 712,60; 7213,000; 2734,000;    0,000
 712,86; 6832,000; 2306,000;    0,000
 713,12; 6329,000; 2352,000;    0,000
 713,38; 5648,000; 1535,000;    0,000
 713,64; 6089,000; 1774,000;    0,000
 713,90; 6004,000; 1738,000;    0,000
 714,16; 5794,000; 1646,000;    0,000
 714,42; 5930,000; 1799,000;    0,000
 714,68; 6324,000; 2275,000;    0,000
 714,94; 6306,000; 2378,000;    0,000
 715,20; 6224,000; 1936,000;    0,000
 715,45; 5914,000; 1814,000;    0,000
 715,71; 6179,000; 1979,000;    0,000
 715,97; 5955,000; 1702,000;    0,000
 716,23; 6325,000; 2300,000;    0,000
 716,49; 6401,000; 2311,000;    0,000
 716,75; 5531,000; 1566,000;    0,000
 717,01; 6139,000; 2094,000;    0,000
 717,27; 5652,000; 1644,000;    0,000
 717,53; 6220,000; 2251,000;    0,000
 717,79; 5931,000; 1599,000;    0,000
 718,05; 6933,000; 2878,000;    0,000
 718,31; 6348,000; 1592,000;    0,000
 718,56; 6259,000; 1887,000;    0,000
 718,82; 6208,000; 1847,000;    0,000
 719,08; 6195,000; 1816,000;    0,000
 719,34; 6033,000; 1324,000;    0,000
 719,60; 6259,000; 1967,000;    0,000
 719,86; 5774,000; 1651,000;    0,000
 720,12; 5773,000; 1424,000;    0,000
 720,38; 6192,000; 1749,000;    0,000
 720,63; 6422,000; 2537,000;    0,000
 720,89; 6642,000; 2445,000;    0,000
 721,15; 6160,000; 2174,000;    0,000
 721,41; 6069,000; 1509,000;    0,000
 721,67; 6381,000; 1695,000;    0,000
 721,93; 6703,000; 2046,000;    0,000
 722,19; 6464,000; 1999,000;    0,000
 722,44; 6652,000; 2024,000;    0,000
 722,70; 7056,000; 1975,000;    0,000
 722,96; 6845,000; 2057,000;    0,000
 723,22; 6905,000; 1948,000;    0,000
 723,48; 6876,000; 1729,000;    0,000
 723,74; 7519,000; 2315,000;    0,000
 723,99; 7452,000; 2253,000;    0,000
 724,25; 7594,000; 2555,000;    0,000
 724,51; 7465,000; 2325,000;    0,000
 724,77; 7497,000; 2125,000;    0,000
 725,03; 7558,000; 2249,000;    0,000
 725,29; 7565,000; 1923,000;    0,000
 725,54; 7529,000; 2259,000;    0,000
 725,80; 7610,000; 2285,000;    0,000
 726,06; 7611,000; 1900,000;    0,000
 726,32; 7582,000; 1833,000;    0,000
 726,58; 7491,000; 2285,000;    0,000
 726,83; 8150,000; 2360,000;    0,000
 727,09; 8063,000; 2354,000;    0,000
 727,35; 8013,000; 2205,000;    0,000
 727,61; 7643,000; 2008,000;    0,000
 727,87; 8339,000; 2109,000;    0,000
 728,12; 8397,000; 2389,000;    0,000
 728,38; 8257,000; 2440,000;    0,000
 728,64; 8505,000; 2580,000;    0,000
 728,90; 8219,000; 2413,000;    0,000
 729,15; 7892,000; 2096,000;    0,000
 729,41; 7952,000; 2385,000;    0,000
 729,67; 8917,000; 2933,000;    0,000
 729,93; 8620,000; 2181,000;    0,000
 730,18; 8022,000; 2004,000;    0,000
 730,44; 8855,000; 2219,000;    0,000
 730,70; 7988,000; 1932,000;    0,000
 730,96; 8786,000; 2281,000;    0,000
 731,21; 8204,000; 1992,000;    0,000
 731,47; 8410,000; 2679,000;    0,000
 731,73; 8050,000; 2405,000;    0,000
 731,99; 9825,000; 3041,000;    0,000
 732,24; 9573,000; 2618,000;    0,000
 732,50;10667,000; 2797,000;    0,000
 732,76;10373,000; 2457,000;    0,000
 733,02;10628,000; 3119,000;    0,000
 733,27;11061,000; 3028,000;    0,000
 733,53;10946,000; 2718,000;    0,000
 733,79;11820,000; 3222,000;    0,000
 734,04;11400,000; 2725,000;    0,000
 734,30;11486,000; 2751,000;    0,000
 734,56;11556,000; 2683,000;    0,000
 734,82;11869,000; 2596,000;    0,000
 735,07;11811,000; 2928,000;    0,000
 735,33;11642,000; 2530,000;    0,000
 735,59;12598,000; 3308,000;    0,000
 735,84;12362,000; 3215,000;    0,000
 736,10;11796,000; 2673,000;    0,000
 736,36;12508,000; 2739,000;    0,000
 736,61;12418,000; 3064,000;    0,000
 736,87;11875,000; 2389,000;    0,000
 737,13;11860,000; 2402,000;    0,000
 737,38;11432,000; 2270,000;    0,000
 737,64;11627,000; 2428,000;    0,000
 737,90;11803,000; 2403,000;    0,000
 738,15;11847,000; 2815,000;    0,000
 738,41;11908,000; 2882,000;    0,000
 738,67;11611,000; 2260,000;    0,000
 738,92;11766,000; 2379,000;    0,000
 739,18;11857,000; 2968,000;    0,000
 739,44;11496,000; 2651,000;    0,000
 739,69;11527,000; 2540,000;    0,000
 739,95;11372,000; 2313,000;    0,000
 740,21;12038,000; 2756,000;    0,000
 740,46;11045,000; 2407,000;    0,000
 740,72;11223,000; 2500,000;    0,000
 740,98;11082,000; 2835,000;    0,000
 741,23;11053,000; 2321,000;    0,000
 741,49;11117,000; 2739,000;    0,000
 741,74;11108,000; 2434,000;    0,000
 742,00;10566,000; 1951,000;    0,000
 742,26;10246,000; 2156,000;    0,000
 742,51;10563,000; 1986,000;    0,000
 742,77; 9958,000; 1810,000;    0,000
 743,02;10026,000; 2234,000;    0,000
 743,28; 9330,000; 1586,000;    0,000
 743,54; 8915,000; 1781,000;    0,000
 743,79; 9669,000; 2300,000;    0,000
 744,05; 9679,000; 1958,000;    0,000
 744,30; 9762,000; 2212,000;    0,000
 744,56;10117,000; 2330,000;    0,000
 744,82; 9903,000; 1915,000;    0,000
 745,07;10063,000; 2491,000;    0,000
 745,33;10647,000; 2316,000;    0,000
 745,58;10781,000; 2637,000;    0,000
 745,84;11492,000; 2676,000;    0,000
 746,09;12178,000; 2975,000;    0,000
 746,35;12789,000; 2746,000;    0,000
 746,61;13164,000; 3067,000;    0,000
 746,86;13090,000; 2669,000;    0,000
 747,12;13646,000; 3123,000;    0,000
 747,37;14180,000; 3450,000;    0,000
 747,63;14075,000; 3184,000;    0,000
 747,88;15421,000; 3676,000;    0,000
 748,14;15139,000; 3408,000;    0,000
 748,39;15266,000; 3290,000;    0,000
 748,65;15144,000; 3370,000;    0,000
 748,91;15207,000; 3157,000;    0,000
 749,16;15041,000; 3003,000;    0,000
 749,42;15457,000; 3463,000;    0,000
 749,67;15497,000; 3144,000;    0,000
 749,93;14883,000; 3246,000;    0,000
 750,18;15596,000; 3578,000;    0,000
 750,44;15674,000; 4068,000;    0,000
 750,69;14789,000; 3439,000;    0,000
 750,95;15812,000; 3667,000;    0,000
 751,20;14898,000; 3504,000;    0,000
 751,46;14657,000; 3356,000;    0,000
 751,71;15089,000; 3731,000;    0,000
 751,97;15374,000; 3596,000;    0,000
 752,22;14404,000; 3055,000;    0,000
 752,48;14414,000; 2901,000;    0,000
 752,73;15423,000; 4101,000;    0,000
 752,99;13806,000; 2790,000;    0,000
 753,24;13921,000; 2895,000;    0,000
 753,50;14441,000; 3368,000;    0,000
 753,75;14279,000; 3806,000;    0,000
 754,01;13555,000; 2547,000;    0,000
 754,26;12857,000; 2754,000;    0,000
 754,51;13318,000; 3080,000;    0,000
 754,77;12679,000; 2813,000;    0,000
 755,02;11983,000; 2336,000;    0,000
 755,28;11462,000; 2551,000;    0,000
 755,53;10740,000; 2074,000;    0,000
 755,79;10293,000; 2183,000;    0,000
 756,04; 9993,000; 2469,000;    0,000
 756,30; 9362,000; 2029,000;    0,000
 756,55; 8790,000; 2124,000;    0,000
 756,81; 7808,000; 2284,000;    0,000
 757,06; 8642,000; 3036,000;    0,000
 757,31; 8613,000; 2262,000;    0,000
 757,57; 9246,000; 2305,000;    0,000
 757,82; 9017,000; 2727,000;    0,000
 758,08; 8853,000; 2417,000;    0,000
 758,33; 9413,000; 2733,000;    0,000
 758,59;10200,000; 2994,000;    0,000
 758,84;10103,000; 2876,000;    0,000
 759,09;10712,000; 2738,000;    0,000
 759,35;10421,000; 2708,000;    0,000
 759,60;11444,000; 3403,000;    0,000
 759,86;11668,000; 3882,000;    0,000
 760,11;12295,000; 3843,000;    0,000
 760,36;12208,000; 3480,000;    0,000
 760,62;12800,000; 3507,000;    0,000
 760,87;13092,000; 3591,000;    0,000
 761,13;12965,000; 3560,000;    0,000
 761,38;12982,000; 4159,000;    0,000
 761,63;12901,000; 3781,000;    0,000
 761,89;13242,000; 3875,000;    0,000
 762,14;13665,000; 4452,000;    0,000
 762,39;13221,000; 3599,000;    0,000
 762,65;13582,000; 4038,000;    0,000
 762,90;12963,000; 4110,000;    0,000
 763,16;13088,000; 4216,000;    0,000
 763,41;13139,000; 3939,000;    0,000
 763,66;12954,000; 3574,000;    0,000
 763,92;13403,000; 4298,000;    0,000
 764,17;13059,000; 3874,000;    0,000
 764,42;13254,000; 3903,000;    0,000
 764,68;13307,000; 4068,000;    0,000
 764,93;13245,000; 3610,000;    0,000
 765,18;12129,000; 3538,000;    0,000
 765,44;12288,000; 3528,000;    0,000
 765,69;13624,000; 4890,000;    0,000
 765,94;12628,000; 3677,000;    0,000
 766,20;14130,000; 4772,000;    0,000
 766,45;13419,000; 4354,000;    0,000
 766,70;13871,000; 4289,000;    0,000
 766,96;13270,000; 3930,000;    0,000
 767,21;13779,000; 4269,000;    0,000
 767,46;12943,000; 3623,000;    0,000
 767,72;13221,000; 3920,000;    0,000
 767,97;12052,000; 3756,000;    0,000
 768,22;12202,000; 3730,000;    0,000
 768,47;11770,000; 3882,000;    0,000
 768,73;11595,000; 3580,000;    0,000
 768,98;10561,000; 3037,000;    0,000
 769,23;10103,000; 3073,000;    0,000
 769,49; 9391,000; 3018,000;    0,000
 769,74; 8926,000; 2530,000;    0,000
 769,99; 7336,000; 2185,000;    0,000
 770,24; 6098,000; 2503,000;    0,000
 770,50; 6498,000; 2200,000;    0,000
 770,75; 6469,000; 2422,000;    0,000
 771,00; 6007,000; 2268,000;    0,000
 771,25; 5775,000; 1677,000;    0,000
 771,51; 6157,000; 1959,000;    0,000
 771,76; 6196,000; 1765,000;    0,000
 772,01; 6335,000; 2076,000;    0,000
 772,26; 5605,000; 1755,000;    0,000
 772,52; 5796,000; 1750,000;    0,000
 772,77; 5602,000; 1570,000;    0,000
 773,02; 6084,000; 1720,000;    0,000
 773,27; 5753,000; 1931,000;    0,000
 773,53; 5315,000; 1887,000;    0,000
 773,78; 5811,000; 1982,000;    0,000
 774,03; 5267,000; 1466,000;    0,000
 774,28; 5785,000; 2081,000;    0,000
 774,54; 5399,000; 1851,000;    0,000
 774,79; 5439,000; 1866,000;    0,000
 775,04; 5244,000; 1966,000;    0,000
 775,29; 5373,000; 1736,000;    0,000
 775,54; 4771,000; 1122,000;    0,000
 775,80; 5007,000; 1476,000;    0,000
 776,05; 4660,000; 1286,000;    0,000
 776,30; 4927,000; 1496,000;    0,000
 776,55; 4889,000; 1637,000;    0,000
 776,80; 4951,000; 1880,000;    0,000
 777,06; 4144,000; 1245,000;    0,000
 777,31; 4473,000; 1748,000;    0,000
 777,56; 3528,000;  687,000;    0,000
 777,81; 3426,000; 1099,000;    0,000
 778,06; 3028,000;  649,000;    0,000
 778,32; 3443,000; 1343,000;    0,000
 778,57; 2821,000;  805,000;    0,000
 778,82; 2387,000;  504,000;    0,000
 779,07; 1425,000;  265,000;    0,000
 779,32; 1485,000;  267,000;    0,000
 779,57; 1318,000;   87,000;    0,000
 779,83; 1332,000;  201,000;    0,000
 780,08; 1196,000;  297,000;    0,000
 780,33; 1630,000;  505,000;    0,000
 780,58; 1789,000;  857,000;    0,000
 780,83; 1652,000;  556,000;    0,000
 781,08; 1472,000;  556,000;    0,000
 781,33; 1401,000;  447,000;    0,000
 781,59; 1045,000;  -18,000;    0,000
 781,84; 1210,000;  179,000;    0,000
 782,09; 1294,000;  241,000;    0,000
 782,34; 1021,000;   95,000;    0,000
 782,59; 1323,000;  257,000;    0,000
 782,84; 1754,000;  706,000;    0,000
 783,09; 1231,000;  359,000;    0,000
 783,34; 1624,000;  769,000;    0,000
 783,59; 1265,000;  301,000;    0,000
 783,85; 1085,000;  223,000;    0,000
 784,10; 1075,000;  104,000;    0,000
 784,35; 1605,000;  734,000;    0,000
 784,60; 1362,000;  388,000;    0,000
 784,85; 1162,000;  405,000;    0,000
 785,10; 1245,000;  507,000;    0,000
 785,35; 1007,000;  171,000;    0,000
 785,60; 1081,000;  -24,000;    0,000
 785,85; 1454,000;  577,000;    0,000
 786,10; 1133,000;  330,000;    0,000
 786,35; 2054,000; 1314,000;    0,000
 786,61; 1598,000;  959,000;    0,000
 786,86; 1290,000;  529,000;    0,000
 787,11;  945,000;  282,000;    0,000
 787,36; 1752,000; 1014,000;    0,000
 787,61; 1359,000;  608,000;    0,000
 787,86; 1114,000;  408,000;    0,000
 788,11; 1197,000;  612,000;    0,000
 788,36; 1430,000;  436,000;    0,000
 788,61; 1622,000;  618,000;    0,000
 788,86; 2125,000;  875,000;    0,000
 789,11; 2007,000;  923,000;    0,000
 789,36; 2432,000;  723,000;    0,000
 789,61; 2171,000;  895,000;    0,000
 789,86; 2602,000; 1276,000;    0,000
 790,11; 2475,000; 1121,000;    0,000
 790,36; 2715,000; 1116,000;    0,000
 790,61; 2644,000;  901,000;    0,000
 790,86; 2687,000; 1014,000;    0,000
 791,11; 3179,000; 1447,000;    0,000
 791,36; 2845,000; 1213,000;    0,000
 791,61; 3158,000; 1443,000;    0,000
 791,86; 3117,000; 1279,000;    0,000
 792,11; 3464,000; 1636,000;    0,000
 792,36; 3053,000; 1194,000;    0,000
 792,61; 3463,000; 1704,000;    0,000
 792,86; 3280,000; 1466,000;    0,000
 793,11; 3765,000; 1887,000;    0,000
 793,36; 3285,000; 1127,000;    0,000
 793,61; 2837,000; 1230,000;    0,000
 793,86; 3155,000; 1613,000;    0,000
 794,11; 3284,000; 1310,000;    0,000
 794,36; 3742,000; 1610,000;    0,000
 794,61; 3881,000; 1915,000;    0,000
 794,86; 4116,000; 1992,000;    0,000
 795,11; 4686,000; 2018,000;    0,000
 795,36; 5091,000; 2376,000;    0,000
 795,61; 4935,000; 2436,000;    0,000
 795,86; 5710,000; 2556,000;    0,000
 796,11; 5438,000; 2457,000;    0,000
 796,36; 5910,000; 2548,000;    0,000
 796,61; 5852,000; 2823,000;    0,000
 796,86; 5927,000; 2599,000;    0,000
 797,11; 6141,000; 2489,000;    0,000
 797,36; 6608,000; 3079,000;    0,000
 797,60; 5969,000; 2595,000;    0,000
 797,85; 6573,000; 3166,000;    0,000
 798,10; 6814,000; 3433,000;    0,000
 798,35; 6234,000; 2619,000;    0,000
 798,60; 6480,000; 3061,000;    0,000
 798,85; 6512,000; 2954,000;    0,000
 799,10; 7057,000; 3524,000;    0,000
 799,35; 6280,000; 2893,000;    0,000
 799,60; 6133,000; 3003,000;    0,000
 799,85; 6229,000; 3193,000;    0,000
 800,10; 5726,000; 2512,000;    0,000
 800,34; 5654,000; 2327,000;    0,000
 800,59; 5284,000; 2292,000;    0,000
 800,84; 5324,000; 2184,000;    0,000
 801,09; 5223,000; 2768,000;    0,000
 801,34; 5154,000; 2835,000;    0,000
 801,59; 4225,000; 2169,000;    0,000
 801,84; 4839,000; 2361,000;    0,000
 802,09; 4354,000; 2103,000;    0,000
 802,34; 4759,000; 2045,000;    0,000
 802,58; 4167,000; 1925,000;    0,000
 802,83; 4910,000; 2299,000;    0,000
 803,08; 4526,000; 1954,000;    0,000
 803,33; 4698,000; 2216,000;    0,000
 803,58; 4506,000; 2384,000;    0,000
 803,83; 5529,000; 2719,000;    0,000
 804,08; 5245,000; 2447,000;    0,000
 804,32; 6676,000; 3912,000;    0,000
 804,57; 5671,000; 3065,000;    0,000
 804,82; 5954,000; 3231,000;    0,000
 805,07; 6973,000; 3501,000;    0,000
 805,32; 8054,000; 4108,000;    0,000
 805,57; 8566,000; 4379,000;    0,000
 805,81; 8789,000; 4443,000;    0,000
 806,06; 9329,000; 4791,000;    0,000
 806,31; 9644,000; 4369,000;    0,000
 806,56; 9657,000; 4769,000;    0,000
 806,81; 9908,000; 5134,000;    0,000
 807,05; 9789,000; 4781,000;    0,000
 807,30;10410,000; 5504,000;    0,000
 807,55;10660,000; 5770,000;    0,000
 807,80;10480,000; 5047,000;    0,000
 808,05;10552,000; 5154,000;    0,000
 808,29;10710,000; 5855,000;    0,000
 808,54;10821,000; 5809,000;    0,000
 808,79;11303,000; 5958,000;    0,000
 809,04;10948,000; 5653,000;    0,000
 809,29;10721,000; 5808,000;    0,000
 809,53;11027,000; 5671,000;    0,000
 809,78;11728,000; 6089,000;    0,000
 810,03;11694,000; 5852,000;    0,000
 810,28;11377,000; 5851,000;    0,000
 810,52;11165,000; 5809,000;    0,000
 810,77;11343,000; 5702,000;    0,000
 811,02;11776,000; 6390,000;    0,000
 811,27;11282,000; 5757,000;    0,000
 811,51;11339,000; 6167,000;    0,000
 811,76;11192,000; 6005,000;    0,000
 812,01;10924,000; 5648,000;    0,000
 812,26;11455,000; 6118,000;    0,000
 812,50;10633,000; 5606,000;    0,000
 812,75;10481,000; 5310,000;    0,000
 813,00;11228,000; 5520,000;    0,000
 813,25;10459,000; 5629,000;    0,000
 813,49;10498,000; 5186,000;    0,000
 813,74;10184,000; 5256,000;    0,000
 813,99;10317,000; 5192,000;    0,000
 814,23;10289,000; 5689,000;    0,000
 814,48;10214,000; 5716,000;    0,000
 814,73; 9210,000; 5030,000;    0,000
 814,98; 9084,000; 4597,000;    0,000
 815,22; 8870,000; 4867,000;    0,000
 815,47; 7671,000; 3816,000;    0,000
 815,72; 7796,000; 3887,000;    0,000
 815,96; 6625,000; 3778,000;    0,000
 816,21; 6143,000; 3047,000;    0,000
 816,46; 5393,000; 2695,000;    0,000
 816,70; 5565,000; 3019,000;    0,000
 816,95; 4128,000; 2181,000;    0,000
 817,20; 3742,000; 1874,000;    0,000
 817,44; 2910,000; 1423,000;    0,000
 817,69; 2334,000; 1062,000;    0,000
 817,94; 1969,000; 1045,000;    0,000
 818,18;  395,000;  351,000;    0,000
 818,43;  555,000;  226,000;    0,000
 818,68;  360,000;  114,000;    0,000
 818,92;  499,000;  372,000;    0,000
 819,17;  390,000;  313,000;    0,000
 819,42;  170,000;  -69,000;    0,000
 819,66;  261,000;   94,000;    0,000
 819,91;  670,000;  612,000;    0,000
 820,16;  929,000;  627,000;    0,000
 820,40; 1269,000; 1054,000;    0,000
 820,65; 1018,000;  802,000;    0,000
 820,90;  757,000;  166,000;    0,000
 821,14;  990,000;  421,000;    0,000
 821,39;  811,000;  435,000;    0,000
 821,63;  990,000;  558,000;    0,000
 821,88;  793,000;  154,000;    0,000
 822,13;  926,000;  384,000;    0,000
 822,37; 1387,000;  888,000;    0,000
 822,62; 1257,000;  666,000;    0,000
 822,86; 1167,000;  510,000;    0,000
 823,11; 1188,000;  472,000;    0,000
 823,36; 1575,000;  859,000;    0,000
 823,60; 1803,000; 1039,000;    0,000
 823,85; 1777,000; 1076,000;    0,000
 824,09; 1635,000; 1000,000;    0,000
 824,34; 1300,000;  725,000;    0,000
 824,59; 1603,000;  830,000;    0,000
 824,83; 1582,000;  745,000;    0,000
 825,08; 1028,000;  347,000;    0,000
 825,32; 1040,000;  611,000;    0,000
 825,57; 1541,000;  719,000;    0,000
 825,81; 1488,000;  880,000;    0,000
 826,06; 1242,000;  415,000;    0,000
 826,30; 1172,000;  363,000;    0,000
 826,55; 1425,000;  710,000;    0,000
 826,80; 1125,000;  549,000;    0,000
 827,04; 1945,000; 1297,000;    0,000
 827,29; 1307,000;  725,000;    0,000
 827,53; 1787,000; 1172,000;    0,000
 827,78; 1709,000;  962,000;    0,000
 828,02; 1262,000;  681,000;    0,000
 828,27; 1265,000;  698,000;    0,000
 828,51; 1473,000;  693,000;    0,000
 828,76; 1242,000;  661,000;    0,000
 829,00; 1290,000;  848,000;    0,000
 829,25; 1309,000;  704,000;    0,000
 829,49; 1478,000;  688,000;    0,000
 829,74; 1515,000;  864,000;    0,000
 829,98; 1284,000;  707,000;    0,000
 830,23; 1121,000;  629,000;    0,000
 830,47; 1234,000;  729,000;    0,000
 830,72; 1099,000;  553,000;    0,000
 830,96; 1189,000;  681,000;    0,000
 831,21;  492,000;   45,000;    0,000
 831,45; 1436,000; 1051,000;    0,000
 831,70;  809,000;  234,000;    0,000
 831,94;  767,000;  307,000;    0,000
 832,19;  819,000;  476,000;    0,000
 832,43;  475,000;  301,000;    0,000
 832,68;  854,000;  635,000;    0,000
 832,92;  660,000;  414,000;    0,000
 833,17;  -44,000; -119,000;    0,000
 833,41;  895,000;  795,000;    0,000
 833,66;  278,000;  182,000;    0,000
 833,90;  490,000;  414,000;    0,000
 834,14;  124,000;   -2,000;    0,000
 834,39;  601,000;  295,000;    0,000
 834,63;  736,000;  515,000;    0,000
 834,88;  942,000;  606,000;    0,000
 835,12; 1173,000;  808,000;    0,000
 835,37; 1539,000;  914,000;    0,000
 835,61; 1159,000;  653,000;    0,000
 835,86; 2071,000; 1520,000;    0,000
 836,10; 1683,000;  652,000;    0,000
 836,34; 1926,000; 1151,000;    0,000
 836,59; 2130,000;  970,000;    0,000
 836,83; 2337,000; 1217,000;    0,000
 837,08; 2692,000; 1617,000;    0,000
 837,32; 2929,000; 1677,000;    0,000
 837,56; 2947,000; 1429,000;    0,000
 837,81; 2760,000; 1446,000;    0,000
 838,05; 3377,000; 1966,000;    0,000
 838,30; 3641,000; 1855,000;    0,000
 838,54; 3703,000; 1886,000;    0,000
 838,78; 3615,000; 2107,000;    0,000
 839,03; 3718,000; 1872,000;    0,000
 839,27; 4144,000; 2296,000;    0,000
 839,52; 4359,000; 2579,000;    0,000
 839,76; 4257,000; 2188,000;    0,000
 840,00; 5250,000; 3117,000;    0,000
 840,25; 4144,000; 2097,000;    0,000
 840,49; 4212,000; 2265,000;    0,000
 840,73; 4689,000; 2454,000;    0,000
 840,98; 4253,000; 2283,000;    0,000
 841,22; 4116,000; 2149,000;    0,000
 841,46; 4688,000; 2430,000;    0,000
 841,71; 4547,000; 2393,000;    0,000
 841,95; 4457,000; 2330,000;    0,000
 842,19; 4496,000; 2452,000;    0,000
 842,44; 4186,000; 2072,000;    0,000
 842,68; 4237,000; 2282,000;    0,000
 842,92; 4458,000; 2346,000;    0,000
 843,17; 4234,000; 2216,000;    0,000
 843,41; 4256,000; 2281,000;    0,000
 843,65; 4588,000; 2697,000;    0,000
 843,90; 4123,000; 2236,000;    0,000
 844,14; 4252,000; 2516,000;    0,000
 844,38; 4231,000; 2277,000;    0,000
 844,63; 3937,000; 1963,000;    0,000
 844,87; 3784,000; 2238,000;    0,000
 845,11; 4145,000; 2449,000;    0,000
 845,36; 3322,000; 1793,000;    0,000
 845,60; 3285,000; 1729,000;    0,000
 845,84; 3421,000; 1593,000;    0,000
 846,08; 3545,000; 2012,000;    0,000
 846,33; 3557,000; 1964,000;    0,000
 846,57; 3086,000; 1695,000;    0,000
 846,81; 2649,000; 1404,000;    0,000
 847,06; 3068,000; 1901,000;    0,000
 847,30; 2225,000; 1473,000;    0,000
 847,54; 1966,000; 1071,000;    0,000
 847,78; 1977,000; 1199,000;    0,000
 848,03; 1722,000;  917,000;    0,000
 848,27; 1910,000; 1202,000;    0,000
 848,51; 1718,000; 1101,000;    0,000
 848,75; 1649,000; 1295,000;    0,000
 849,00; 1488,000; 1078,000;    0,000
 849,24;  781,000;  436,000;    0,000
 849,48;  774,000;  226,000;    0,000
 849,72; 1223,000;  738,000;    0,000
 849,97; 1548,000; 1022,000;    0,000
 850,21; 1032,000;  726,000;    0,000
 850,45; 1308,000;  935,000;    0,000
 850,69;  839,000;  544,000;    0,000
 850,94; 1075,000;  502,000;    0,000
 851,18;  640,000;  282,000;    0,000
 851,42;  917,000;  374,000;    0,000
 851,66; 1256,000;  947,000;    0,000
 851,90; 1093,000;  581,000;    0,000
 852,15;  952,000;  628,000;    0,000
 852,39;  847,000;  484,000;    0,000
 852,63;  651,000;  204,000;    0,000
 852,87; 1385,000; 1042,000;    0,000
 853,11;  797,000;  428,000;    0,000
 853,36; 1157,000;  651,000;    0,000
 853,60;  984,000;  747,000;    0,000
 853,84; 1213,000;  937,000;    0,000
 854,08; 1039,000;  816,000;    0,000
 854,32;  904,000;  381,000;    0,000
 854,56;  883,000;  663,000;    0,000
 854,81; 1357,000; 1070,000;    0,000
 855,05;  727,000;  396,000;    0,000
 855,29; 1331,000; 1075,000;    0,000
 855,53;  478,000;  280,000;    0,000
 855,77; 1077,000;  660,000;    0,000
 856,01;  687,000;  426,000;    0,000
 856,26;  805,000;  589,000;    0,000
 856,50;  768,000;  427,000;    0,000
 856,74;  456,000;   91,000;    0,000
 856,98;  771,000;  689,000;    0,000
 857,22;  847,000;  614,000;    0,000
 857,46;  897,000;  494,000;    0,000
 857,70;  681,000;  652,000;    0,000
 857,94;  578,000;  575,000;    0,000
 858,19;  539,000;  283,000;    0,000
 858,43;  338,000;  176,000;    0,000
 858,67;  252,000;  166,000;    0,000
 858,91;  317,000;  585,000;    0,000
 859,15;  150,000;  144,000;    0,000
 859,39;  426,000;  489,000;    0,000
 859,63;  350,000;  337,000;    0,000
 859,87; 1190,000; 1396,000;    0,000
 860,11;  408,000;  315,000;    0,000
 860,35;  119,000;   91,000;    0,000
 860,60;   22,000;  -45,000;    0,000
 860,84;  215,000;   70,000;    0,000
 861,08;  552,000;  537,000;    0,000
 861,32;  536,000;  487,000;    0,000
 861,56;  801,000;  612,000;    0,000
 861,80;  397,000;  463,000;    0,000
 862,04;  593,000;  688,000;    0,000
 862,28; 1002,000;  990,000;    0,000
 862,52;  617,000;  598,000;    0,000
 862,76;  445,000;  483,000;    0,000
 863,00; 1044,000; 1098,000;    0,000
 863,24;  265,000;  177,000;    0,000
 863,48;  692,000;  580,000;    0,000
 863,72;  575,000;  688,000;    0,000
 863,96; 1188,000; 1254,000;    0,000
 864,20;  906,000;  892,000;    0,000
 864,44;  834,000;  569,000;    0,000
 864,69;  290,000;  311,000;    0,000
 864,93;  529,000;  363,000;    0,000
 865,17;  300,000;  152,000;    0,000
 865,41; 1268,000; 1233,000;    0,000
 865,65;  381,000;  308,000;    0,000
 865,89;  402,000;  374,000;    0,000
 866,13;  627,000;  583,000;    0,000
 866,37; 1177,000; 1073,000;    0,000
 866,61;  414,000;  338,000;    0,000
 866,85;  688,000;  587,000;    0,000
 867,09;  597,000;  412,000;    0,000
 867,33; 1247,000; 1328,000;    0,000
 867,57;  951,000;  926,000;    0,000
 867,81; 1098,000;  894,000;    0,000
 868,05;  784,000;  671,000;    0,000
 868,29;  668,000;  633,000;    0,000
 868,53;  732,000;  691,000;    0,000
 868,76; 1011,000;  988,000;    0,000
 869,00;  635,000;  622,000;    0,000
 869,24; 1407,000;  980,000;    0,000
 869,48;  930,000;  772,000;    0,000
 869,72;  675,000;  412,000;    0,000
 869,96;  662,000;  597,000;    0,000
 870,20;  965,000;  822,000;    0,000
 870,44;  734,000;  719,000;    0,000
 870,68; 1032,000; 1205,000;    0,000
 870,92;  980,000;  753,000;    0,000
 871,16; 1124,000;  811,000;    0,000
 871,40; 1531,000; 1452,000;    0,000
 871,64; 1330,000; 1108,000;    0,000
 871,88;  648,000;  604,000;    0,000
 872,12;  925,000;  707,000;    0,000
 872,36; 1196,000; 1079,000;    0,000
 872,60;  887,000;  851,000;    0,000
 872,83;  799,000;  687,000;    0,000
 873,07; 1397,000; 1255,000;    0,000
 873,31;  931,000;  871,000;    0,000
 873,55; 1205,000; 1258,000;    0,000
 873,79;  694,000;  649,000;    0,000
 874,03;  969,000;  968,000;    0,000
 874,27;  803,000;  693,000;    0,000
 874,51;  937,000;  908,000;    0,000
 874,75; 1205,000;  968,000;    0,000
 874,99;  950,000;  947,000;    0,000
 875,22; 1205,000; 1189,000;    0,000
 875,46; 1013,000;  775,000;    0,000
 875,70;  921,000;  879,000;    0,000
 875,94; 1312,000; 1099,000;    0,000
 876,18; 1133,000; 1107,000;    0,000
 876,42;  772,000;  827,000;    0,000
 876,66; 1131,000; 1175,000;    0,000
 876,89; 1144,000; 1014,000;    0,000
 877,13; 1176,000; 1229,000;    0,000
 877,37;  952,000;  802,000;    0,000
 877,61; 1110,000; 1127,000;    0,000
 877,85; 1521,000; 1670,000;    0,000
 878,09; 1962,000; 1838,000;    0,000
 878,33; 1459,000; 1203,000;    0,000
 878,56; 1152,000; 1142,000;    0,000
 878,80; 1280,000; 1142,000;    0,000
 879,04; 1539,000; 1568,000;    0,000
 879,28; 1624,000; 1668,000;    0,000
 879,52; 1458,000; 1195,000;    0,000
 879,75; 1677,000; 1618,000;    0,000
 879,99; 1528,000; 1584,000;    0,000
 880,23; 1695,000; 1369,000;    0,000
 880,47; 1628,000; 1581,000;    0,000
 880,71; 1754,000; 1706,000;    0,000
 880,95; 1907,000; 2066,000;    0,000
 881,18; 1819,000; 1757,000;    0,000
 881,42; 2064,000; 2202,000;    0,000
 881,66; 2539,000; 2555,000;    0,000
 881,90; 1911,000; 2050,000;    0,000
 882,13; 1947,000; 2238,000;    0,000
 882,37; 2332,000; 2528,000;    0,000
 882,61; 2521,000; 2750,000;    0,000
 882,85; 2882,000; 2749,000;    0,000
 883,09; 3127,000; 3200,000;    0,000
 883,32; 3026,000; 3452,000;    0,000
 883,56; 3567,000; 3739,000;    0,000
 883,80; 3501,000; 3764,000;    0,000
 884,04; 3988,000; 4057,000;    0,000
 884,27; 4760,000; 5097,000;    0,000
 884,51; 4958,000; 4775,000;    0,000
 884,75; 5646,000; 5777,000;    0,000
 884,99; 6404,000; 6635,000;    0,000
 885,22; 7132,000; 7196,000;    0,000
 885,46; 7923,000; 8313,000;    0,000

