qd3_hops_yellow_2
Integration time [ms]:  500,00
Averaging Nr. [scans]: 1
Smoothing Nr. [pixels]: 0
Data measured with spectrometer [name]: 1412150E1
Wave   ;Sample   ;Dark     ;Reference;Scope
[nm]   ;[counts] ;[counts] ;[counts] 

 337,19;63544,000; 4519,000;    0,000
 337,48;63644,000; 4777,000;    0,000
 337,77;63544,000; 4996,000;    0,000
 338,07;63644,000; 5120,000;    0,000
 338,36;63544,000; 5286,000;    0,000
 338,66;63644,000; 5142,000;    0,000
 338,95;63544,000; 5652,000;    0,000
 339,24;63644,000; 5451,000;    0,000
 339,54;63544,000; 5497,000;    0,000
 339,83;63644,000; 5938,000;    0,000
 340,12;63544,000; 6176,000;    0,000
 340,42;63644,000; 5847,000;    0,000
 340,71;63544,000; 6095,000;    0,000
 341,00;63644,000; 6297,000;    0,000
 341,30;63544,000; 6500,000;    0,000
 341,59;63644,000; 6309,000;    0,000
 341,88;63544,000; 6505,000;    0,000
 342,18;63644,000; 6662,000;    0,000
 342,47;63544,000; 7136,000;    0,000
 342,76;63644,000; 7683,000;    0,000
 343,06;63544,000; 6938,000;    0,000
 343,35;63644,000; 7263,000;    0,000
 343,64;63544,000; 7272,000;    0,000
 343,94;63644,000; 7497,000;    0,000
 344,23;63544,000; 7195,000;    0,000
 344,52;63644,000; 8224,000;    0,000
 344,82;63544,000; 7697,000;    0,000
 345,11;63644,000; 7983,000;    0,000
 345,40;63544,000; 8548,000;    0,000
 345,70;63644,000; 8504,000;    0,000
 345,99;63544,000; 8171,000;    0,000
 346,28;63644,000; 8727,000;    0,000
 346,58;63544,000; 8549,000;    0,000
 346,87;63644,000; 8801,000;    0,000
 347,16;63544,000; 9409,000;    0,000
 347,45;63644,000; 9224,000;    0,000
 347,75;63544,000; 9093,000;    0,000
 348,04;63644,000;10353,000;    0,000
 348,33;63544,000;10122,000;    0,000
 348,63;63644,000;10359,000;    0,000
 348,92;63544,000; 9975,000;    0,000
 349,21;63644,000;10645,000;    0,000
 349,51;63544,000;10752,000;    0,000
 349,80;63644,000;10882,000;    0,000
 350,09;63544,000;10725,000;    0,000
 350,38;63644,000;11350,000;    0,000
 350,68;63544,000;11062,000;    0,000
 350,97;63644,000;12057,000;    0,000
 351,26;63544,000;12382,000;    0,000
 351,55;63644,000;11691,000;    0,000
 351,85;63544,000;11512,000;    0,000
 352,14;63644,000;12062,000;    0,000
 352,43;63544,000;12134,000;    0,000
 352,73;63644,000;12194,000;    0,000
 353,02;63544,000;12961,000;    0,000
 353,31;63644,000;12741,000;    0,000
 353,60;63544,000;13288,000;    0,000
 353,90;63644,000;13402,000;    0,000
 354,19;63544,000;13302,000;    0,000
 354,48;63644,000;13583,000;    0,000
 354,77;63544,000;13930,000;    0,000
 355,07;63644,000;14181,000;    0,000
 355,36;63544,000;14068,000;    0,000
 355,65;63644,000;15094,000;    0,000
 355,94;63544,000;14989,000;    0,000
 356,23;63644,000;15518,000;    0,000
 356,53;63544,000;16018,000;    0,000
 356,82;63644,000;16227,000;    0,000
 357,11;63544,000;16204,000;    0,000
 357,40;63644,000;15979,000;    0,000
 357,70;63544,000;16676,000;    0,000
 357,99;63644,000;17580,000;    0,000
 358,28;63544,000;17299,000;    0,000
 358,57;63644,000;18173,000;    0,000
 358,87;63544,000;17755,000;    0,000
 359,16;63644,000;18435,000;    0,000
 359,45;63544,000;18771,000;    0,000
 359,74;63644,000;19402,000;    0,000
 360,03;63544,000;20186,000;    0,000
 360,33;63644,000;19664,000;    0,000
 360,62;63544,000;19493,000;    0,000
 360,91;63644,000;20114,000;    0,000
 361,20;63544,000;20008,000;    0,000
 361,49;63644,000;20694,000;    0,000
 361,79;63544,000;20705,000;    0,000
 362,08;63644,000;21141,000;    0,000
 362,37;63544,000;21162,000;    0,000
 362,66;63644,000;20959,000;    0,000
 362,95;63544,000;21384,000;    0,000
 363,25;63644,000;21529,000;    0,000
 363,54;63544,000;21446,000;    0,000
 363,83;63644,000;21732,000;    0,000
 364,12;63544,000;21897,000;    0,000
 364,41;63644,000;21721,000;    0,000
 364,70;63544,000;22250,000;    0,000
 365,00;63644,000;22000,000;    0,000
 365,29;63544,000;22139,000;    0,000
 365,58;63644,000;22063,000;    0,000
 365,87;63544,000;21752,000;    0,000
 366,16;63644,000;21322,000;    0,000
 366,45;63544,000;21847,000;    0,000
 366,75;63644,000;21324,000;    0,000
 367,04;63544,000;21463,000;    0,000
 367,33;63644,000;21349,000;    0,000
 367,62;63544,000;21652,000;    0,000
 367,91;63644,000;21204,000;    0,000
 368,20;63544,000;20775,000;    0,000
 368,50;63644,000;21236,000;    0,000
 368,79;63544,000;20604,000;    0,000
 369,08;63644,000;20361,000;    0,000
 369,37;63544,000;20559,000;    0,000
 369,66;63644,000;20310,000;    0,000
 369,95;63544,000;20243,000;    0,000
 370,24;63644,000;20353,000;    0,000
 370,53;63544,000;19478,000;    0,000
 370,83;63644,000;19258,000;    0,000
 371,12;63544,000;18966,000;    0,000
 371,41;63644,000;18842,000;    0,000
 371,70;63544,000;18296,000;    0,000
 371,99;63644,000;18008,000;    0,000
 372,28;63544,000;17604,000;    0,000
 372,57;63644,000;17814,000;    0,000
 372,86;63544,000;16670,000;    0,000
 373,16;63644,000;16681,000;    0,000
 373,45;63544,000;16549,000;    0,000
 373,74;63644,000;15829,000;    0,000
 374,03;63544,000;16024,000;    0,000
 374,32;63644,000;16248,000;    0,000
 374,61;63544,000;15984,000;    0,000
 374,90;63644,000;15269,000;    0,000
 375,19;63544,000;14620,000;    0,000
 375,48;63644,000;14773,000;    0,000
 375,78;63544,000;14703,000;    0,000
 376,07;63644,000;14255,000;    0,000
 376,36;63544,000;14048,000;    0,000
 376,65;63644,000;14089,000;    0,000
 376,94;63544,000;13344,000;    0,000
 377,23;63644,000;13638,000;    0,000
 377,52;63544,000;13325,000;    0,000
 377,81;63644,000;12717,000;    0,000
 378,10;63544,000;13206,000;    0,000
 378,39;63644,000;13371,000;    0,000
 378,68;63544,000;12866,000;    0,000
 378,97;63644,000;12559,000;    0,000
 379,26;63544,000;11454,000;    0,000
 379,56;63644,000;11636,000;    0,000
 379,85;63544,000;12247,000;    0,000
 380,14;63644,000;11310,000;    0,000
 380,43;63544,000;11443,000;    0,000
 380,72;63644,000;12082,000;    0,000
 381,01;63544,000;11839,000;    0,000
 381,30;63644,000;11308,000;    0,000
 381,59;63544,000;11084,000;    0,000
 381,88;63644,000;10752,000;    0,000
 382,17;63544,000;10656,000;    0,000
 382,46;63644,000;11054,000;    0,000
 382,75;63544,000;10779,000;    0,000
 383,04;63644,000;10369,000;    0,000
 383,33;63544,000;10529,000;    0,000
 383,62;63644,000;10143,000;    0,000
 383,91;63544,000; 9842,000;    0,000
 384,20;63644,000;10664,000;    0,000
 384,49;63544,000;10016,000;    0,000
 384,78;63644,000; 9537,000;    0,000
 385,07;63544,000; 9869,000;    0,000
 385,36;63644,000; 9800,000;    0,000
 385,65;63544,000; 9627,000;    0,000
 385,94;63644,000; 9539,000;    0,000
 386,23;63544,000; 9454,000;    0,000
 386,52;63644,000; 8805,000;    0,000
 386,81;63544,000; 9847,000;    0,000
 387,10;63644,000; 9246,000;    0,000
 387,39;63544,000; 8569,000;    0,000
 387,68;63644,000; 8956,000;    0,000
 387,97;63544,000; 9054,000;    0,000
 388,26;63644,000; 8392,000;    0,000
 388,55;63544,000; 8528,000;    0,000
 388,84;63644,000; 8787,000;    0,000
 389,13;63544,000; 8379,000;    0,000
 389,42;63644,000; 8860,000;    0,000
 389,71;63544,000; 8775,000;    0,000
 390,00;63644,000; 8527,000;    0,000
 390,29;63544,000; 8773,000;    0,000
 390,58;63644,000; 8302,000;    0,000
 390,87;63544,000; 8653,000;    0,000
 391,16;63644,000; 8430,000;    0,000
 391,45;63544,000; 8257,000;    0,000
 391,74;63644,000; 8053,000;    0,000
 392,03;63544,000; 8568,000;    0,000
 392,32;63644,000; 7993,000;    0,000
 392,61;63544,000; 7782,000;    0,000
 392,90;63644,000; 7701,000;    0,000
 393,19;63544,000; 7850,000;    0,000
 393,48;63644,000; 7493,000;    0,000
 393,77;63544,000; 7194,000;    0,000
 394,06;63644,000; 7300,000;    0,000
 394,35;63544,000; 7192,000;    0,000
 394,64;63644,000; 7166,000;    0,000
 394,93;63544,000; 6812,000;    0,000
 395,22;63644,000; 7084,000;    0,000
 395,51;63544,000; 7275,000;    0,000
 395,80;63644,000; 6721,000;    0,000
 396,09;63544,000; 6734,000;    0,000
 396,38;63644,000; 6827,000;    0,000
 396,67;63544,000; 6625,000;    0,000
 396,95;63644,000; 7214,000;    0,000
 397,24;63544,000; 7052,000;    0,000
 397,53;63644,000; 8068,000;    0,000
 397,82;63544,000; 8647,000;    0,000
 398,11;63644,000; 9783,000;    0,000
 398,40;63544,000;10706,000;    0,000
 398,69;63644,000;11843,000;    0,000
 398,98;63544,000;12285,000;    0,000
 399,27;63644,000;12832,000;    0,000
 399,56;63544,000;12997,000;    0,000
 399,85;63644,000;13598,000;    0,000
 400,14;63544,000;14305,000;    0,000
 400,42;63644,000;14131,000;    0,000
 400,71;63544,000;13799,000;    0,000
 401,00;63644,000;14597,000;    0,000
 401,29;63544,000;14540,000;    0,000
 401,58;63644,000;14557,000;    0,000
 401,87;63544,000;15101,000;    0,000
 402,16;63644,000;14872,000;    0,000
 402,45;63544,000;14890,000;    0,000
 402,74;63644,000;15279,000;    0,000
 403,03;63544,000;14890,000;    0,000
 403,31;63644,000;15193,000;    0,000
 403,60;63544,000;14965,000;    0,000
 403,89;63644,000;14546,000;    0,000
 404,18;63544,000;14709,000;    0,000
 404,47;63644,000;14314,000;    0,000
 404,76;63544,000;14718,000;    0,000
 405,05;63644,000;14495,000;    0,000
 405,34;63544,000;13520,000;    0,000
 405,62;63644,000;14395,000;    0,000
 405,91;63544,000;14404,000;    0,000
 406,20;63644,000;14296,000;    0,000
 406,49;63544,000;14141,000;    0,000
 406,78;63644,000;13849,000;    0,000
 407,07;63544,000;13801,000;    0,000
 407,36;63644,000;13823,000;    0,000
 407,64;63544,000;13621,000;    0,000
 407,93;63644,000;13981,000;    0,000
 408,22;63544,000;13202,000;    0,000
 408,51;63644,000;13321,000;    0,000
 408,80;63544,000;12237,000;    0,000
 409,09;63644,000;12421,000;    0,000
 409,38;63544,000;11910,000;    0,000
 409,66;63644,000;12082,000;    0,000
 409,95;63544,000;11496,000;    0,000
 410,24;63644,000; 9873,000;    0,000
 410,53;63544,000; 8962,000;    0,000
 410,82;63644,000; 7956,000;    0,000
 411,11;63544,000; 7008,000;    0,000
 411,39;63644,000; 6189,000;    0,000
 411,68;63544,000; 4926,000;    0,000
 411,97;63644,000; 3552,000;    0,000
 412,26;63544,000; 3121,000;    0,000
 412,55;42667,000; 3057,000;    0,000
 412,83;35956,000; 3416,000;    0,000
 413,12;33419,000; 2552,000;    0,000
 413,41;31438,000; 2621,000;    0,000
 413,70;29858,000; 3321,000;    0,000
 413,99;26454,000; 2190,000;    0,000
 414,27;24368,000; 2051,000;    0,000
 414,56;22888,000; 2295,000;    0,000
 414,85;23127,000; 2483,000;    0,000
 415,14;21607,000; 2062,000;    0,000
 415,43;20949,000; 1646,000;    0,000
 415,71;19634,000; 1325,000;    0,000
 416,00;19120,000; 1612,000;    0,000
 416,29;18436,000; 1599,000;    0,000
 416,58;18192,000; 1686,000;    0,000
 416,87;17677,000; 1708,000;    0,000
 417,15;16377,000; 1217,000;    0,000
 417,44;16634,000; 1707,000;    0,000
 417,73;16268,000; 1774,000;    0,000
 418,02;15864,000; 1850,000;    0,000
 418,30;14469,000; 1393,000;    0,000
 418,59;14535,000; 1702,000;    0,000
 418,88;14225,000; 1614,000;    0,000
 419,17;13272,000; 1292,000;    0,000
 419,45;12924,000; 1342,000;    0,000
 419,74;12781,000; 1466,000;    0,000
 420,03;11798,000;  888,000;    0,000
 420,32;11989,000; 1298,000;    0,000
 420,60;11262,000; 1633,000;    0,000
 420,89;11414,000; 1336,000;    0,000
 421,18;11057,000; 1224,000;    0,000
 421,47;10247,000;  915,000;    0,000
 421,75; 9929,000;  798,000;    0,000
 422,04; 9725,000;  988,000;    0,000
 422,33; 9367,000;  919,000;    0,000
 422,62; 9673,000; 1261,000;    0,000
 422,90; 9062,000;  868,000;    0,000
 423,19; 8821,000;  868,000;    0,000
 423,48; 8489,000;  953,000;    0,000
 423,77; 8470,000;  989,000;    0,000
 424,05; 7901,000;  771,000;    0,000
 424,34; 8097,000;  777,000;    0,000
 424,63; 7923,000; 1289,000;    0,000
 424,91; 7871,000; 1252,000;    0,000
 425,20; 7601,000;  825,000;    0,000
 425,49; 6977,000; 1191,000;    0,000
 425,78; 7167,000; 1265,000;    0,000
 426,06; 6896,000;  972,000;    0,000
 426,35; 8018,000; 1885,000;    0,000
 426,64; 6789,000; 1272,000;    0,000
 426,92; 6767,000; 1358,000;    0,000
 427,21; 5932,000;  772,000;    0,000
 427,50; 6160,000;  471,000;    0,000
 427,78; 5769,000;  580,000;    0,000
 428,07;16643,000;10971,000;    0,000
 428,36; 5916,000;  696,000;    0,000
 428,65;10048,000; 1755,000;    0,000
 428,93;16308,000; 1399,000;    0,000
 429,22;26431,000; 2217,000;    0,000
 429,51;32970,000; 2177,000;    0,000
 429,79;37400,000; 2359,000;    0,000
 430,08;40168,000; 2793,000;    0,000
 430,37;42620,000; 3226,000;    0,000
 430,65;43940,000; 3038,000;    0,000
 430,94;44649,000; 3643,000;    0,000
 431,23;45562,000; 3501,000;    0,000
 431,51;46784,000; 3635,000;    0,000
 431,80;48358,000; 3812,000;    0,000
 432,09;47976,000; 3784,000;    0,000
 432,37;48913,000; 4191,000;    0,000
 432,66;49687,000; 4093,000;    0,000
 432,95;49454,000; 3871,000;    0,000
 433,23;51179,000; 4511,000;    0,000
 433,52;50654,000; 4259,000;    0,000
 433,81;50657,000; 4230,000;    0,000
 434,09;51406,000; 4322,000;    0,000
 434,38;50531,000; 4106,000;    0,000
 434,66;51012,000; 4497,000;    0,000
 434,95;51197,000; 4346,000;    0,000
 435,24;50523,000; 4354,000;    0,000
 435,52;50835,000; 4004,000;    0,000
 435,81;49946,000; 3892,000;    0,000
 436,10;50688,000; 4531,000;    0,000
 436,38;50643,000; 4278,000;    0,000
 436,67;51334,000; 4196,000;    0,000
 436,95;50840,000; 4319,000;    0,000
 437,24;49841,000; 4133,000;    0,000
 437,53;49906,000; 3687,000;    0,000
 437,81;50348,000; 4544,000;    0,000
 438,10;50867,000; 4729,000;    0,000
 438,39;50086,000; 3826,000;    0,000
 438,67;50093,000; 3878,000;    0,000
 438,96;49725,000; 4744,000;    0,000
 439,24;48902,000; 4235,000;    0,000
 439,53;48630,000; 4443,000;    0,000
 439,82;46345,000; 3668,000;    0,000
 440,10;45923,000; 4050,000;    0,000
 440,39;45353,000; 3995,000;    0,000
 440,67;42373,000; 3706,000;    0,000
 440,96;40725,000; 3703,000;    0,000
 441,25;37775,000; 3713,000;    0,000
 441,53;33112,000; 3424,000;    0,000
 441,82;24895,000; 2410,000;    0,000
 442,10;15435,000; 2274,000;    0,000
 442,39; 7075,000; 1444,000;    0,000
 442,67; 8316,000; 4458,000;    0,000
 442,96; 4908,000; 1101,000;    0,000
 443,25; 4752,000;  738,000;    0,000
 443,53; 5818,000; 1578,000;    0,000
 443,82; 5124,000;  791,000;    0,000
 444,10; 5060,000; 1148,000;    0,000
 444,39; 5014,000; 1098,000;    0,000
 444,67; 5504,000; 1066,000;    0,000
 444,96; 4853,000;  674,000;    0,000
 445,24; 4834,000; 1002,000;    0,000
 445,53; 5020,000;  837,000;    0,000
 445,82; 5371,000; 1072,000;    0,000
 446,10; 5100,000;  884,000;    0,000
 446,39; 4853,000;  670,000;    0,000
 446,67; 5279,000;  810,000;    0,000
 446,96; 4732,000;  727,000;    0,000
 447,24; 5026,000;  677,000;    0,000
 447,53; 5042,000;  749,000;    0,000
 447,81; 4977,000;  766,000;    0,000
 448,10; 5486,000;  990,000;    0,000
 448,38; 5096,000;  573,000;    0,000
 448,67; 5587,000; 1209,000;    0,000
 448,95; 5431,000; 1076,000;    0,000
 449,24; 5367,000; 1090,000;    0,000
 449,53; 5571,000;  990,000;    0,000
 449,81; 4834,000;  561,000;    0,000
 450,10; 5048,000;  480,000;    0,000
 450,38; 5008,000;  743,000;    0,000
 450,67; 5672,000; 1212,000;    0,000
 450,95; 5708,000;  890,000;    0,000
 451,24; 5145,000;  478,000;    0,000
 451,52; 5688,000;  717,000;    0,000
 451,81; 5800,000;  999,000;    0,000
 452,09; 5822,000; 1007,000;    0,000
 452,38; 6006,000; 1098,000;    0,000
 452,66; 5753,000;  852,000;    0,000
 452,95; 5520,000;  938,000;    0,000
 453,23; 6180,000; 1266,000;    0,000
 453,52; 5975,000; 1055,000;    0,000
 453,80; 6361,000; 1298,000;    0,000
 454,08; 6209,000; 1019,000;    0,000
 454,37; 5696,000;  832,000;    0,000
 454,65; 5966,000;  906,000;    0,000
 454,94; 6362,000; 1042,000;    0,000
 455,22; 5549,000;  650,000;    0,000
 455,51; 5775,000;  664,000;    0,000
 455,79; 6944,000; 1497,000;    0,000
 456,08; 6449,000; 1360,000;    0,000
 456,36; 6903,000; 1266,000;    0,000
 456,65; 6335,000; 1088,000;    0,000
 456,93; 6422,000;  871,000;    0,000
 457,22; 6040,000;  715,000;    0,000
 457,50; 6005,000;  671,000;    0,000
 457,79; 6532,000;  772,000;    0,000
 458,07; 6948,000; 1381,000;    0,000
 458,35; 6571,000;  832,000;    0,000
 458,64; 6610,000;  905,000;    0,000
 458,92; 7409,000; 1508,000;    0,000
 459,21; 6710,000;  919,000;    0,000
 459,49; 6450,000;  909,000;    0,000
 459,78; 6778,000;  975,000;    0,000
 460,06; 6669,000;  921,000;    0,000
 460,34; 6749,000;  777,000;    0,000
 460,63; 7171,000;  756,000;    0,000
 460,91; 6827,000;  756,000;    0,000
 461,20; 7051,000;  910,000;    0,000
 461,48; 6985,000; 1030,000;    0,000
 461,77; 7033,000;  895,000;    0,000
 462,05; 7094,000;  991,000;    0,000
 462,33; 7452,000; 1043,000;    0,000
 462,62; 7724,000; 1186,000;    0,000
 462,90; 7483,000;  886,000;    0,000
 463,19; 8399,000; 1247,000;    0,000
 463,47; 7983,000;  992,000;    0,000
 463,75; 8370,000; 1375,000;    0,000
 464,04; 7926,000; 1000,000;    0,000
 464,32; 7548,000;  832,000;    0,000
 464,61; 8166,000; 1248,000;    0,000
 464,89; 8142,000; 1101,000;    0,000
 465,17; 8605,000; 1514,000;    0,000
 465,46; 8257,000; 1159,000;    0,000
 465,74; 8008,000;  683,000;    0,000
 466,03; 8023,000;  963,000;    0,000
 466,31; 8271,000;  833,000;    0,000
 466,59; 9051,000; 1150,000;    0,000
 466,88; 8697,000;  912,000;    0,000
 467,16; 9390,000; 1179,000;    0,000
 467,44; 9054,000;  988,000;    0,000
 467,73; 8570,000;  798,000;    0,000
 468,01; 9518,000; 1138,000;    0,000
 468,30; 9393,000; 1189,000;    0,000
 468,58; 9049,000; 1308,000;    0,000
 468,86; 8897,000;  815,000;    0,000
 469,15; 9521,000; 1082,000;    0,000
 469,43; 8963,000;  674,000;    0,000
 469,71; 9587,000; 1095,000;    0,000
 470,00; 9481,000;  781,000;    0,000
 470,28; 9433,000;  800,000;    0,000
 470,56;10695,000; 1276,000;    0,000
 470,85;10324,000; 1232,000;    0,000
 471,13; 9888,000;  777,000;    0,000
 471,41;10061,000;  791,000;    0,000
 471,70;10223,000; 1107,000;    0,000
 471,98;11506,000; 1945,000;    0,000
 472,26;10326,000; 1105,000;    0,000
 472,55; 9782,000;  649,000;    0,000
 472,83;10535,000;  919,000;    0,000
 473,11;10974,000; 1236,000;    0,000
 473,40;11377,000; 1188,000;    0,000
 473,68;11725,000; 1407,000;    0,000
 473,96;11055,000; 1298,000;    0,000
 474,25;10796,000;  930,000;    0,000
 474,53;10943,000;  845,000;    0,000
 474,81;11311,000; 1171,000;    0,000
 475,10;11391,000; 1097,000;    0,000
 475,38;11376,000; 1476,000;    0,000
 475,66;11610,000; 1098,000;    0,000
 475,94;11666,000; 1195,000;    0,000
 476,23;13040,000; 1903,000;    0,000
 476,51;11998,000; 1219,000;    0,000
 476,79;12232,000;  937,000;    0,000
 477,08;12341,000; 1346,000;    0,000
 477,36;12445,000; 1097,000;    0,000
 477,64;12786,000; 1162,000;    0,000
 477,92;12847,000; 1203,000;    0,000
 478,21;12450,000;  647,000;    0,000
 478,49;13567,000; 1564,000;    0,000
 478,77;12609,000;  985,000;    0,000
 479,06;12789,000; 1000,000;    0,000
 479,34;13612,000;  918,000;    0,000
 479,62;13231,000; 1015,000;    0,000
 479,90;13582,000; 1047,000;    0,000
 480,19;14113,000; 1490,000;    0,000
 480,47;13633,000; 1039,000;    0,000
 480,75;13502,000;  984,000;    0,000
 481,03;13816,000; 1256,000;    0,000
 481,32;13911,000; 1199,000;    0,000
 481,60;14267,000; 1018,000;    0,000
 481,88;14069,000; 1195,000;    0,000
 482,16;15089,000;  869,000;    0,000
 482,45;14016,000;  675,000;    0,000
 482,73;14808,000; 1188,000;    0,000
 483,01;15142,000; 1472,000;    0,000
 483,29;14837,000; 1062,000;    0,000
 483,58;15919,000; 1904,000;    0,000
 483,86;15142,000; 1244,000;    0,000
 484,14;15018,000; 1077,000;    0,000
 484,42;15379,000; 1037,000;    0,000
 484,71;15701,000; 1262,000;    0,000
 484,99;15618,000; 1169,000;    0,000
 485,27;15423,000;  885,000;    0,000
 485,55;15975,000; 1219,000;    0,000
 485,83;15906,000; 1028,000;    0,000
 486,12;16135,000; 1034,000;    0,000
 486,40;15665,000; 1328,000;    0,000
 486,68;16434,000; 1407,000;    0,000
 486,96;16360,000;  969,000;    0,000
 487,24;16229,000;  967,000;    0,000
 487,53;16534,000;  886,000;    0,000
 487,81;17013,000; 1263,000;    0,000
 488,09;16597,000; 1023,000;    0,000
 488,37;17506,000; 1573,000;    0,000
 488,65;17339,000; 1241,000;    0,000
 488,94;17617,000; 1244,000;    0,000
 489,22;17143,000; 1003,000;    0,000
 489,50;18121,000; 1590,000;    0,000
 489,78;17367,000; 1072,000;    0,000
 490,06;17700,000; 1185,000;    0,000
 490,34;17227,000;  807,000;    0,000
 490,63;18096,000; 1068,000;    0,000
 490,91;17655,000;  798,000;    0,000
 491,19;18380,000; 1047,000;    0,000
 491,47;18444,000; 1022,000;    0,000
 491,75;18446,000; 1108,000;    0,000
 492,04;18312,000; 1019,000;    0,000
 492,32;19000,000; 1572,000;    0,000
 492,60;19366,000; 1277,000;    0,000
 492,88;18956,000;  546,000;    0,000
 493,16;19071,000; 1183,000;    0,000
 493,44;18744,000; 1190,000;    0,000
 493,72;19732,000; 1215,000;    0,000
 494,01;19529,000; 1253,000;    0,000
 494,29;19316,000;  670,000;    0,000
 494,57;19268,000;  978,000;    0,000
 494,85;19886,000; 1096,000;    0,000
 495,13;20044,000; 1000,000;    0,000
 495,41;20093,000; 1100,000;    0,000
 495,69;20238,000;  984,000;    0,000
 495,98;21294,000; 1656,000;    0,000
 496,26;21031,000; 1577,000;    0,000
 496,54;20058,000;  881,000;    0,000
 496,82;20447,000; 1181,000;    0,000
 497,10;21019,000;  793,000;    0,000
 497,38;21355,000; 1119,000;    0,000
 497,66;20532,000;  570,000;    0,000
 497,94;21565,000;  979,000;    0,000
 498,22;21696,000; 1214,000;    0,000
 498,51;21588,000;  931,000;    0,000
 498,79;22124,000; 1581,000;    0,000
 499,07;21616,000;  894,000;    0,000
 499,35;21403,000;  727,000;    0,000
 499,63;21914,000;  880,000;    0,000
 499,91;22052,000; 1169,000;    0,000
 500,19;22610,000; 1241,000;    0,000
 500,47;22224,000;  728,000;    0,000
 500,75;22720,000; 1050,000;    0,000
 501,03;23267,000; 1307,000;    0,000
 501,31;23364,000; 1267,000;    0,000
 501,60;23569,000; 1486,000;    0,000
 501,88;23220,000;  881,000;    0,000
 502,16;23478,000; 1204,000;    0,000
 502,44;24334,000; 1392,000;    0,000
 502,72;23304,000; 1057,000;    0,000
 503,00;24057,000; 1416,000;    0,000
 503,28;23692,000;  914,000;    0,000
 503,56;24121,000;  821,000;    0,000
 503,84;23975,000; 1049,000;    0,000
 504,12;25190,000; 1353,000;    0,000
 504,40;24243,000; 1011,000;    0,000
 504,68;24432,000;  800,000;    0,000
 504,96;24901,000;  796,000;    0,000
 505,24;25868,000; 1769,000;    0,000
 505,52;25239,000; 1142,000;    0,000
 505,80;25218,000; 1290,000;    0,000
 506,08;25816,000; 1035,000;    0,000
 506,36;25977,000; 1397,000;    0,000
 506,65;25802,000; 1388,000;    0,000
 506,93;26772,000; 1568,000;    0,000
 507,21;27029,000; 1160,000;    0,000
 507,49;26884,000; 1362,000;    0,000
 507,77;26785,000; 1248,000;    0,000
 508,05;26819,000; 1345,000;    0,000
 508,33;27042,000; 1441,000;    0,000
 508,61;27707,000; 1199,000;    0,000
 508,89;27840,000; 1634,000;    0,000
 509,17;27403,000; 1345,000;    0,000
 509,45;28018,000; 1494,000;    0,000
 509,73;27909,000; 1355,000;    0,000
 510,01;28298,000; 1561,000;    0,000
 510,29;29306,000; 1762,000;    0,000
 510,57;28594,000; 1536,000;    0,000
 510,85;29115,000; 1862,000;    0,000
 511,13;28687,000; 1795,000;    0,000
 511,41;29107,000; 1925,000;    0,000
 511,69;29839,000; 2082,000;    0,000
 511,97;29803,000; 2019,000;    0,000
 512,25;30384,000; 2184,000;    0,000
 512,53;30334,000; 1794,000;    0,000
 512,81;30744,000; 2290,000;    0,000
 513,09;31040,000; 2336,000;    0,000
 513,37;30840,000; 1747,000;    0,000
 513,65;31590,000; 2511,000;    0,000
 513,93;31549,000; 2228,000;    0,000
 514,21;32270,000; 2416,000;    0,000
 514,48;31810,000; 2059,000;    0,000
 514,76;32570,000; 2942,000;    0,000
 515,04;32775,000; 2545,000;    0,000
 515,32;32957,000; 3095,000;    0,000
 515,60;33245,000; 2559,000;    0,000
 515,88;33833,000; 3136,000;    0,000
 516,16;33833,000; 2606,000;    0,000
 516,44;34500,000; 3081,000;    0,000
 516,72;34567,000; 3141,000;    0,000
 517,00;34953,000; 3828,000;    0,000
 517,28;34597,000; 3197,000;    0,000
 517,56;35497,000; 3820,000;    0,000
 517,84;36260,000; 3676,000;    0,000
 518,12;35804,000; 3803,000;    0,000
 518,40;36179,000; 3627,000;    0,000
 518,68;36029,000; 3749,000;    0,000
 518,96;37311,000; 3771,000;    0,000
 519,23;37500,000; 4397,000;    0,000
 519,51;36506,000; 4469,000;    0,000
 519,79;37894,000; 4456,000;    0,000
 520,07;39457,000; 5776,000;    0,000
 520,35;37970,000; 4760,000;    0,000
 520,63;38716,000; 5546,000;    0,000
 520,91;38803,000; 5251,000;    0,000
 521,19;39041,000; 5085,000;    0,000
 521,47;40127,000; 5583,000;    0,000
 521,75;40267,000; 5677,000;    0,000
 522,03;40366,000; 5938,000;    0,000
 522,30;40344,000; 6007,000;    0,000
 522,58;40701,000; 5977,000;    0,000
 522,86;40734,000; 6549,000;    0,000
 523,14;41688,000; 6339,000;    0,000
 523,42;41569,000; 6334,000;    0,000
 523,70;42706,000; 6814,000;    0,000
 523,98;43365,000; 7436,000;    0,000
 524,26;43157,000; 7677,000;    0,000
 524,54;43794,000; 8267,000;    0,000
 524,81;44585,000; 8256,000;    0,000
 525,09;44539,000; 8178,000;    0,000
 525,37;44115,000; 7717,000;    0,000
 525,65;45003,000; 8142,000;    0,000
 525,93;45525,000; 8888,000;    0,000
 526,21;45393,000; 8987,000;    0,000
 526,49;46244,000; 9278,000;    0,000
 526,76;45694,000; 9214,000;    0,000
 527,04;46738,000; 9938,000;    0,000
 527,32;46939,000; 9701,000;    0,000
 527,60;47659,000;10536,000;    0,000
 527,88;47864,000;10248,000;    0,000
 528,16;47655,000;10856,000;    0,000
 528,44;48511,000;11050,000;    0,000
 528,71;49426,000;11907,000;    0,000
 528,99;48436,000;11363,000;    0,000
 529,27;49000,000;11647,000;    0,000
 529,55;48548,000;12481,000;    0,000
 529,83;50552,000;12964,000;    0,000
 530,11;50761,000;13649,000;    0,000
 530,38;49412,000;13582,000;    0,000
 530,66;50316,000;13373,000;    0,000
 530,94;50584,000;13937,000;    0,000
 531,22;51618,000;14921,000;    0,000
 531,50;52173,000;15401,000;    0,000
 531,77;51986,000;15630,000;    0,000
 532,05;52418,000;15619,000;    0,000
 532,33;52478,000;15592,000;    0,000
 532,61;52639,000;15765,000;    0,000
 532,89;53139,000;17278,000;    0,000
 533,16;52359,000;17114,000;    0,000
 533,44;53643,000;17187,000;    0,000
 533,72;53989,000;18127,000;    0,000
 534,00;53430,000;18238,000;    0,000
 534,28;53660,000;18714,000;    0,000
 534,55;53540,000;18950,000;    0,000
 534,83;54790,000;19930,000;    0,000
 535,11;54775,000;20731,000;    0,000
 535,39;54867,000;21072,000;    0,000
 535,66;54342,000;21072,000;    0,000
 535,94;54400,000;21364,000;    0,000
 536,22;55789,000;21940,000;    0,000
 536,50;55412,000;22480,000;    0,000
 536,78;54956,000;22709,000;    0,000
 537,05;55573,000;23687,000;    0,000
 537,33;55118,000;23579,000;    0,000
 537,61;55301,000;24523,000;    0,000
 537,89;54686,000;25001,000;    0,000
 538,16;55904,000;25281,000;    0,000
 538,44;55731,000;25983,000;    0,000
 538,72;55729,000;27302,000;    0,000
 539,00;56089,000;26819,000;    0,000
 539,27;55365,000;28171,000;    0,000
 539,55;55652,000;28236,000;    0,000
 539,83;54966,000;29092,000;    0,000
 540,11;55553,000;28720,000;    0,000
 540,38;55483,000;30618,000;    0,000
 540,66;55433,000;31415,000;    0,000
 540,94;56424,000;30709,000;    0,000
 541,21;55127,000;31581,000;    0,000
 541,49;55067,000;31463,000;    0,000
 541,77;55944,000;32646,000;    0,000
 542,05;55031,000;33736,000;    0,000
 542,32;54562,000;34120,000;    0,000
 542,60;54818,000;35301,000;    0,000
 542,88;53732,000;35213,000;    0,000
 543,15;54356,000;35794,000;    0,000
 543,43;53386,000;36443,000;    0,000
 543,71;54501,000;37173,000;    0,000
 543,98;53731,000;37700,000;    0,000
 544,26;54150,000;38589,000;    0,000
 544,54;53210,000;39366,000;    0,000
 544,82;52855,000;39588,000;    0,000
 545,09;52505,000;40032,000;    0,000
 545,37;51462,000;40831,000;    0,000
 545,65;51525,000;41062,000;    0,000
 545,92;50251,000;41476,000;    0,000
 546,20;50488,000;41717,000;    0,000
 546,48;50519,000;42987,000;    0,000
 546,75;50863,000;43555,000;    0,000
 547,03;48921,000;43568,000;    0,000
 547,31;49040,000;44163,000;    0,000
 547,58;48398,000;44851,000;    0,000
 547,86;48372,000;45553,000;    0,000
 548,14;48216,000;46050,000;    0,000
 548,41;47589,000;47173,000;    0,000
 548,69;47558,000;47310,000;    0,000
 548,97;46027,000;47961,000;    0,000
 549,24;45550,000;48039,000;    0,000
 549,52;45376,000;49120,000;    0,000
 549,80;44981,000;49063,000;    0,000
 550,07;44827,000;49890,000;    0,000
 550,35;42800,000;49777,000;    0,000
 550,62;43347,000;50421,000;    0,000
 550,90;43000,000;51281,000;    0,000
 551,18;42139,000;51315,000;    0,000
 551,45;41988,000;52820,000;    0,000
 551,73;41246,000;52194,000;    0,000
 552,01;41002,000;53145,000;    0,000
 552,28;39734,000;53432,000;    0,000
 552,56;39446,000;53936,000;    0,000
 552,83;38732,000;53919,000;    0,000
 553,11;38809,000;54790,000;    0,000
 553,39;39167,000;56254,000;    0,000
 553,66;36057,000;55547,000;    0,000
 553,94;36793,000;54985,000;    0,000
 554,22;36768,000;56210,000;    0,000
 554,49;36403,000;55416,000;    0,000
 554,77;35102,000;56724,000;    0,000
 555,04;34035,000;56291,000;    0,000
 555,32;33523,000;56725,000;    0,000
 555,59;33650,000;57306,000;    0,000
 555,87;33162,000;57517,000;    0,000
 556,15;32269,000;57863,000;    0,000
 556,42;31820,000;57232,000;    0,000
 556,70;30638,000;57520,000;    0,000
 556,97;30355,000;57942,000;    0,000
 557,25;29711,000;57428,000;    0,000
 557,53;30007,000;58122,000;    0,000
 557,80;28762,000;57741,000;    0,000
 558,08;28817,000;58813,000;    0,000
 558,35;27978,000;58584,000;    0,000
 558,63;27660,000;58539,000;    0,000
 558,90;27394,000;58924,000;    0,000
 559,18;26627,000;58423,000;    0,000
 559,45;26113,000;58098,000;    0,000
 559,73;25521,000;58663,000;    0,000
 560,01;25420,000;59019,000;    0,000
 560,28;24703,000;58261,000;    0,000
 560,56;24274,000;59041,000;    0,000
 560,83;24663,000;58234,000;    0,000
 561,11;23343,000;58589,000;    0,000
 561,38;23292,000;58484,000;    0,000
 561,66;23168,000;58334,000;    0,000
 561,93;22397,000;57989,000;    0,000
 562,21;21138,000;57480,000;    0,000
 562,48;21866,000;58567,000;    0,000
 562,76;21076,000;58147,000;    0,000
 563,03;20698,000;57790,000;    0,000
 563,31;21215,000;58248,000;    0,000
 563,58;20305,000;57371,000;    0,000
 563,86;19457,000;56991,000;    0,000
 564,13;19242,000;57768,000;    0,000
 564,41;19037,000;56078,000;    0,000
 564,68;19202,000;55889,000;    0,000
 564,96;18127,000;55503,000;    0,000
 565,23;18645,000;56270,000;    0,000
 565,51;17593,000;54991,000;    0,000
 565,78;17691,000;55314,000;    0,000
 566,06;17011,000;54666,000;    0,000
 566,33;17462,000;55070,000;    0,000
 566,61;17123,000;54876,000;    0,000
 566,88;15827,000;54222,000;    0,000
 567,16;16328,000;53574,000;    0,000
 567,43;16574,000;53802,000;    0,000
 567,71;15159,000;52192,000;    0,000
 567,98;14590,000;52451,000;    0,000
 568,26;14614,000;51768,000;    0,000
 568,53;15250,000;51500,000;    0,000
 568,81;14669,000;51300,000;    0,000
 569,08;14112,000;49963,000;    0,000
 569,36;13593,000;49381,000;    0,000
 569,63;13633,000;49107,000;    0,000
 569,91;13499,000;48993,000;    0,000
 570,18;13501,000;48793,000;    0,000
 570,45;12860,000;48175,000;    0,000
 570,73;12695,000;47853,000;    0,000
 571,00;13165,000;46915,000;    0,000
 571,28;12532,000;46313,000;    0,000
 571,55;12487,000;47116,000;    0,000
 571,83;12700,000;46390,000;    0,000
 572,10;12454,000;45600,000;    0,000
 572,38;12487,000;45434,000;    0,000
 572,65;11704,000;44038,000;    0,000
 572,92;12164,000;43897,000;    0,000
 573,20;12086,000;43456,000;    0,000
 573,47;11661,000;42643,000;    0,000
 573,75;11408,000;41350,000;    0,000
 574,02;11498,000;41856,000;    0,000
 574,29;11448,000;41610,000;    0,000
 574,57;11397,000;39789,000;    0,000
 574,84;10847,000;40617,000;    0,000
 575,12;10950,000;39762,000;    0,000
 575,39;10743,000;39221,000;    0,000
 575,66;10524,000;38302,000;    0,000
 575,94;10891,000;38208,000;    0,000
 576,21;10780,000;36707,000;    0,000
 576,49;10573,000;37170,000;    0,000
 576,76;10700,000;36167,000;    0,000
 577,03; 9792,000;35080,000;    0,000
 577,31;10528,000;35565,000;    0,000
 577,58; 9668,000;34755,000;    0,000
 577,86; 9685,000;34410,000;    0,000
 578,13; 9838,000;33671,000;    0,000
 578,40;10160,000;34099,000;    0,000
 578,68; 9592,000;32372,000;    0,000
 578,95; 9742,000;32100,000;    0,000
 579,22; 9861,000;32474,000;    0,000
 579,50; 9433,000;30908,000;    0,000
 579,77; 9536,000;30321,000;    0,000
 580,05; 9448,000;30637,000;    0,000
 580,32; 8873,000;29683,000;    0,000
 580,59; 9265,000;29998,000;    0,000
 580,87; 9501,000;28549,000;    0,000
 581,14; 9086,000;28457,000;    0,000
 581,41; 8970,000;27574,000;    0,000
 581,69; 8823,000;27204,000;    0,000
 581,96; 8805,000;27366,000;    0,000
 582,23; 9119,000;26801,000;    0,000
 582,51; 8469,000;26236,000;    0,000
 582,78; 9811,000;26658,000;    0,000
 583,05; 8220,000;24697,000;    0,000
 583,33; 9037,000;24742,000;    0,000
 583,60; 7964,000;23914,000;    0,000
 583,87; 9021,000;23819,000;    0,000
 584,15; 8582,000;24000,000;    0,000
 584,42; 8612,000;22679,000;    0,000
 584,69; 8141,000;23158,000;    0,000
 584,96; 8444,000;21252,000;    0,000
 585,24; 8213,000;21659,000;    0,000
 585,51; 8177,000;20901,000;    0,000
 585,78; 7562,000;20193,000;    0,000
 586,06; 8445,000;20858,000;    0,000
 586,33; 7980,000;20471,000;    0,000
 586,60; 7569,000;19536,000;    0,000
 586,88; 7841,000;19434,000;    0,000
 587,15; 7591,000;19385,000;    0,000
 587,42; 7611,000;18312,000;    0,000
 587,69; 7630,000;18042,000;    0,000
 587,97; 8347,000;18361,000;    0,000
 588,24; 8261,000;18130,000;    0,000
 588,51; 7934,000;17276,000;    0,000
 588,79; 8106,000;17153,000;    0,000
 589,06; 8095,000;16922,000;    0,000
 589,33; 7708,000;16123,000;    0,000
 589,60; 7235,000;16020,000;    0,000
 589,88; 7617,000;16053,000;    0,000
 590,15; 7831,000;16054,000;    0,000
 590,42; 7328,000;15120,000;    0,000
 590,69; 7448,000;14831,000;    0,000
 590,97; 8114,000;14593,000;    0,000
 591,24; 7265,000;13726,000;    0,000
 591,51; 7376,000;13986,000;    0,000
 591,78; 7262,000;13757,000;    0,000
 592,06; 7796,000;13626,000;    0,000
 592,33; 6785,000;12484,000;    0,000
 592,60; 7443,000;13090,000;    0,000
 592,87; 7008,000;11836,000;    0,000
 593,15; 7219,000;12677,000;    0,000
 593,42; 7886,000;12896,000;    0,000
 593,69; 7327,000;12169,000;    0,000
 593,96; 7160,000;11386,000;    0,000
 594,23; 7810,000;12067,000;    0,000
 594,51; 6832,000;10434,000;    0,000
 594,78; 6941,000;11027,000;    0,000
 595,05; 6802,000;10304,000;    0,000
 595,32; 7470,000;10810,000;    0,000
 595,59; 6829,000;10055,000;    0,000
 595,87; 7074,000; 9682,000;    0,000
 596,14; 6595,000; 9587,000;    0,000
 596,41; 7363,000; 9953,000;    0,000
 596,68; 6757,000; 8896,000;    0,000
 596,95; 6813,000; 9110,000;    0,000
 597,23; 6629,000; 8842,000;    0,000
 597,50; 6848,000; 8770,000;    0,000
 597,77; 7792,000; 9422,000;    0,000
 598,04; 6981,000; 8385,000;    0,000
 598,31; 7177,000; 8634,000;    0,000
 598,59; 6933,000; 8264,000;    0,000
 598,86; 7308,000; 8246,000;    0,000
 599,13; 6338,000; 7076,000;    0,000
 599,40; 7389,000; 8034,000;    0,000
 599,67; 6711,000; 7332,000;    0,000
 599,94; 6607,000; 6949,000;    0,000
 600,22; 6972,000; 7394,000;    0,000
 600,49; 6531,000; 6533,000;    0,000
 600,76; 6605,000; 6472,000;    0,000
 601,03; 6336,000; 6293,000;    0,000
 601,30; 6466,000; 6445,000;    0,000
 601,57; 6716,000; 6366,000;    0,000
 601,84; 7452,000; 7195,000;    0,000
 602,12; 6853,000; 5817,000;    0,000
 602,39; 6982,000; 6101,000;    0,000
 602,66; 7339,000; 6090,000;    0,000
 602,93; 7410,000; 5922,000;    0,000
 603,20; 6654,000; 5601,000;    0,000
 603,47; 7021,000; 5407,000;    0,000
 603,74; 6721,000; 5064,000;    0,000
 604,02; 6952,000; 5534,000;    0,000
 604,29; 6845,000; 5308,000;    0,000
 604,56; 6365,000; 4531,000;    0,000
 604,83; 6733,000; 4773,000;    0,000
 605,10; 6731,000; 4687,000;    0,000
 605,37; 6792,000; 4610,000;    0,000
 605,64; 6867,000; 4767,000;    0,000
 605,91; 6913,000; 4597,000;    0,000
 606,18; 6513,000; 4053,000;    0,000
 606,45; 6044,000; 3789,000;    0,000
 606,73; 6762,000; 4230,000;    0,000
 607,00; 6360,000; 3867,000;    0,000
 607,27; 6229,000; 3567,000;    0,000
 607,54; 6757,000; 3926,000;    0,000
 607,81; 7368,000; 4069,000;    0,000
 608,08; 6447,000; 3474,000;    0,000
 608,35; 6890,000; 3754,000;    0,000
 608,62; 6743,000; 3243,000;    0,000
 608,89; 6803,000; 3472,000;    0,000
 609,16; 7160,000; 3722,000;    0,000
 609,43; 7282,000; 4008,000;    0,000
 609,70; 6927,000; 3498,000;    0,000
 609,97; 6538,000; 2796,000;    0,000
 610,25; 6580,000; 3105,000;    0,000
 610,52; 6696,000; 2654,000;    0,000
 610,79; 6021,000; 2499,000;    0,000
 611,06; 6818,000; 2850,000;    0,000
 611,33; 6309,000; 2639,000;    0,000
 611,60; 6878,000; 3033,000;    0,000
 611,87; 6166,000; 2552,000;    0,000
 612,14; 6685,000; 2518,000;    0,000
 612,41; 6215,000; 2304,000;    0,000
 612,68; 6407,000; 2528,000;    0,000
 612,95; 5897,000; 2372,000;    0,000
 613,22; 7145,000; 2973,000;    0,000
 613,49; 6395,000; 2096,000;    0,000
 613,76; 6620,000; 2197,000;    0,000
 614,03; 5866,000; 1919,000;    0,000
 614,30; 6923,000; 2609,000;    0,000
 614,57; 6095,000; 2096,000;    0,000
 614,84; 6144,000; 2063,000;    0,000
 615,11; 6142,000; 2084,000;    0,000
 615,38; 6377,000; 2004,000;    0,000
 615,65; 6908,000; 2186,000;    0,000
 615,92; 6226,000; 1951,000;    0,000
 616,19; 6150,000; 2017,000;    0,000
 616,46; 6103,000; 1909,000;    0,000
 616,73; 6399,000; 2099,000;    0,000
 617,00; 6710,000; 2336,000;    0,000
 617,27; 6369,000; 2001,000;    0,000
 617,54; 6231,000; 2021,000;    0,000
 617,81; 5864,000; 1678,000;    0,000
 618,08; 5808,000; 1770,000;    0,000
 618,35; 5525,000; 1531,000;    0,000
 618,62; 6373,000; 2073,000;    0,000
 618,89; 6052,000; 1594,000;    0,000
 619,16; 5814,000; 1172,000;    0,000
 619,43; 5952,000; 1380,000;    0,000
 619,70; 6257,000; 1268,000;    0,000
 619,97; 6271,000; 1776,000;    0,000
 620,24; 6612,000; 2004,000;    0,000
 620,51; 6027,000; 1163,000;    0,000
 620,78; 5830,000; 1283,000;    0,000
 621,05; 5853,000; 1443,000;    0,000
 621,32; 6502,000; 1453,000;    0,000
 621,59; 5724,000; 1243,000;    0,000
 621,86; 6872,000; 1914,000;    0,000
 622,12; 6691,000; 1961,000;    0,000
 622,39; 6283,000; 1446,000;    0,000
 622,66; 6013,000; 1118,000;    0,000
 622,93; 6056,000;  870,000;    0,000
 623,20; 5750,000;  946,000;    0,000
 623,47; 5828,000;  905,000;    0,000
 623,74; 6154,000; 1014,000;    0,000
 624,01; 5893,000;  852,000;    0,000
 624,28; 5842,000; 1048,000;    0,000
 624,55; 6017,000;  806,000;    0,000
 624,82; 5784,000;  956,000;    0,000
 625,09; 6027,000;  988,000;    0,000
 625,36; 6185,000; 1091,000;    0,000
 625,62; 6057,000; 1283,000;    0,000
 625,89; 5977,000;  764,000;    0,000
 626,16; 5996,000;  833,000;    0,000
 626,43; 5726,000;  803,000;    0,000
 626,70; 6453,000; 1198,000;    0,000
 626,97; 5617,000;  847,000;    0,000
 627,24; 6093,000;  973,000;    0,000
 627,51; 5566,000;  442,000;    0,000
 627,78; 5893,000;  638,000;    0,000
 628,04; 5805,000; 1074,000;    0,000
 628,31; 6175,000;  742,000;    0,000
 628,58; 6021,000; 1304,000;    0,000
 628,85; 5603,000;  472,000;    0,000
 629,12; 5717,000;  904,000;    0,000
 629,39; 5385,000;  622,000;    0,000
 629,66; 6386,000; 1332,000;    0,000
 629,93; 5787,000;  831,000;    0,000
 630,19; 5222,000;  403,000;    0,000
 630,46; 5403,000;  525,000;    0,000
 630,73; 5377,000;  700,000;    0,000
 631,00; 5549,000;  693,000;    0,000
 631,27; 5772,000;  737,000;    0,000
 631,54; 5201,000;  414,000;    0,000
 631,80; 5094,000;  548,000;    0,000
 632,07; 5045,000;  401,000;    0,000
 632,34; 5423,000;  558,000;    0,000
 632,61; 5252,000;  543,000;    0,000
 632,88; 5105,000;  392,000;    0,000
 633,15; 5291,000;  565,000;    0,000
 633,41; 5355,000;  736,000;    0,000
 633,68; 5140,000;  626,000;    0,000
 633,95; 5148,000;  433,000;    0,000
 634,22; 4949,000;  353,000;    0,000
 634,49; 5104,000;  326,000;    0,000
 634,76; 6118,000; 1167,000;    0,000
 635,02; 5298,000;  446,000;    0,000
 635,29; 5372,000;  567,000;    0,000
 635,56; 5657,000;  464,000;    0,000
 635,83; 5802,000;  898,000;    0,000
 636,10; 5487,000;  233,000;    0,000
 636,36; 5461,000;  724,000;    0,000
 636,63; 5482,000;  301,000;    0,000
 636,90; 5791,000;  773,000;    0,000
 637,17; 5539,000;  230,000;    0,000
 637,43; 5660,000;  199,000;    0,000
 637,70; 6091,000; 1135,000;    0,000
 637,97; 6693,000; 1259,000;    0,000
 638,24; 6522,000;  972,000;    0,000
 638,51; 5646,000;  246,000;    0,000
 638,77; 6036,000;  531,000;    0,000
 639,04; 6468,000;  866,000;    0,000
 639,31; 6127,000;  393,000;    0,000
 639,58; 6093,000;  471,000;    0,000
 639,84; 6075,000;  582,000;    0,000
 640,11; 6418,000;  368,000;    0,000
 640,38; 6308,000;  368,000;    0,000
 640,65; 6958,000;  985,000;    0,000
 640,91; 6435,000;  609,000;    0,000
 641,18; 6888,000;  484,000;    0,000
 641,45; 7103,000;  993,000;    0,000
 641,72; 6900,000;  773,000;    0,000
 641,98; 6859,000;  528,000;    0,000
 642,25; 6664,000;  569,000;    0,000
 642,52; 6672,000;  531,000;    0,000
 642,78; 7128,000;  279,000;    0,000
 643,05; 7094,000;  602,000;    0,000
 643,32; 7494,000;  669,000;    0,000
 643,59; 7172,000;  244,000;    0,000
 643,85; 7622,000;  476,000;    0,000
 644,12; 7390,000;  653,000;    0,000
 644,39; 7289,000;  258,000;    0,000
 644,65; 7357,000;  538,000;    0,000
 644,92; 7262,000;  235,000;    0,000
 645,19; 8045,000;  519,000;    0,000
 645,46; 8141,000;  703,000;    0,000
 645,72; 7955,000;  644,000;    0,000
 645,99; 8593,000;  598,000;    0,000
 646,26; 7697,000;  113,000;    0,000
 646,52; 9037,000;  574,000;    0,000
 646,79; 8041,000;  217,000;    0,000
 647,06; 8824,000;  653,000;    0,000
 647,32; 8421,000;  466,000;    0,000
 647,59; 9507,000; 1007,000;    0,000
 647,86; 9887,000; 1024,000;    0,000
 648,12; 9259,000;  547,000;    0,000
 648,39; 9112,000;  604,000;    0,000
 648,66; 9699,000;  578,000;    0,000
 648,92; 9326,000;  237,000;    0,000
 649,19;10018,000; 1025,000;    0,000
 649,46; 9656,000;  341,000;    0,000
 649,72;10672,000; 1007,000;    0,000
 649,99; 9832,000;  402,000;    0,000
 650,26;10817,000;  611,000;    0,000
 650,52;10707,000;  806,000;    0,000
 650,79;10748,000;  453,000;    0,000
 651,06;10556,000;  849,000;    0,000
 651,32;10488,000;  392,000;    0,000
 651,59;10565,000;   85,000;    0,000
 651,85;11304,000;  526,000;    0,000
 652,12;11436,000;  424,000;    0,000
 652,39;11378,000;  519,000;    0,000
 652,65;11524,000;  579,000;    0,000
 652,92;12513,000;  967,000;    0,000
 653,19;11912,000;  852,000;    0,000
 653,45;12410,000;  677,000;    0,000
 653,72;12299,000;  659,000;    0,000
 653,98;12518,000;  756,000;    0,000
 654,25;13179,000; 1337,000;    0,000
 654,52;13484,000; 1223,000;    0,000
 654,78;13149,000; 1032,000;    0,000
 655,05;13706,000; 1120,000;    0,000
 655,31;14087,000; 1275,000;    0,000
 655,58;13574,000;  761,000;    0,000
 655,85;13906,000;  681,000;    0,000
 656,11;14049,000;  613,000;    0,000
 656,38;14035,000;  611,000;    0,000
 656,64;14512,000;  542,000;    0,000
 656,91;15533,000; 1120,000;    0,000
 657,18;15263,000;  571,000;    0,000
 657,44;14629,000;  482,000;    0,000
 657,71;15252,000;  432,000;    0,000
 657,97;15156,000;  608,000;    0,000
 658,24;15923,000; 1125,000;    0,000
 658,50;15828,000;  853,000;    0,000
 658,77;16025,000; 1054,000;    0,000
 659,03;16274,000;  777,000;    0,000
 659,30;16538,000; 1209,000;    0,000
 659,57;16734,000;  562,000;    0,000
 659,83;16902,000;  573,000;    0,000
 660,10;17033,000;  994,000;    0,000
 660,36;17311,000;  747,000;    0,000
 660,63;17395,000;  836,000;    0,000
 660,89;17525,000;  582,000;    0,000
 661,16;18163,000;  894,000;    0,000
 661,42;18267,000; 1012,000;    0,000
 661,69;18428,000;  841,000;    0,000
 661,95;18358,000;  733,000;    0,000
 662,22;18397,000;  612,000;    0,000
 662,48;19094,000; 1048,000;    0,000
 662,75;19200,000;  855,000;    0,000
 663,01;20164,000; 1107,000;    0,000
 663,28;20113,000;  972,000;    0,000
 663,54;20521,000; 1025,000;    0,000
 663,81;19831,000; 1005,000;    0,000
 664,07;21030,000; 1194,000;    0,000
 664,34;20824,000; 1365,000;    0,000
 664,60;23569,000; 3039,000;    0,000
 664,87;21473,000;  894,000;    0,000
 665,13;21570,000; 1071,000;    0,000
 665,40;21719,000;  944,000;    0,000
 665,66;21508,000;  763,000;    0,000
 665,93;22055,000;  933,000;    0,000
 666,19;23637,000; 1824,000;    0,000
 666,46;22993,000; 1375,000;    0,000
 666,72;23188,000; 1385,000;    0,000
 666,99;22664,000;  655,000;    0,000
 667,25;23372,000; 1129,000;    0,000
 667,52;23465,000; 1091,000;    0,000
 667,78;22861,000;  762,000;    0,000
 668,05;23814,000; 1344,000;    0,000
 668,31;23402,000; 1198,000;    0,000
 668,57;23898,000; 1416,000;    0,000
 668,84;25069,000; 1686,000;    0,000
 669,10;24787,000; 1348,000;    0,000
 669,37;24881,000; 1169,000;    0,000
 669,63;24775,000; 1048,000;    0,000
 669,90;24995,000;  943,000;    0,000
 670,16;25897,000; 1442,000;    0,000
 670,43;26334,000; 1157,000;    0,000
 670,69;25967,000; 1800,000;    0,000
 670,95;25614,000;  993,000;    0,000
 671,22;25970,000; 1113,000;    0,000
 671,48;26569,000; 1256,000;    0,000
 671,75;27021,000; 1396,000;    0,000
 672,01;26486,000; 1173,000;    0,000
 672,28;25949,000; 1042,000;    0,000
 672,54;26943,000; 1051,000;    0,000
 672,80;26973,000; 1603,000;    0,000
 673,07;27381,000; 1241,000;    0,000
 673,33;27389,000; 1100,000;    0,000
 673,60;27889,000; 1222,000;    0,000
 673,86;28090,000; 1331,000;    0,000
 674,12;28303,000; 1454,000;    0,000
 674,39;28747,000; 1786,000;    0,000
 674,65;28391,000; 1363,000;    0,000
 674,91;28661,000; 1258,000;    0,000
 675,18;28195,000; 1120,000;    0,000
 675,44;29378,000; 1654,000;    0,000
 675,71;29236,000; 1314,000;    0,000
 675,97;28716,000; 1213,000;    0,000
 676,23;29985,000; 1344,000;    0,000
 676,50;29116,000; 1081,000;    0,000
 676,76;30155,000; 1286,000;    0,000
 677,02;30232,000;  986,000;    0,000
 677,29;30406,000; 1389,000;    0,000
 677,55;30263,000; 1243,000;    0,000
 677,81;30008,000; 1367,000;    0,000
 678,08;30772,000; 1174,000;    0,000
 678,34;31318,000; 1622,000;    0,000
 678,61;30795,000; 1064,000;    0,000
 678,87;31636,000; 1382,000;    0,000
 679,13;31294,000;  957,000;    0,000
 679,40;31952,000; 1342,000;    0,000
 679,66;31683,000; 1264,000;    0,000
 679,92;32010,000; 1195,000;    0,000
 680,18;32062,000; 1392,000;    0,000
 680,45;32601,000; 1463,000;    0,000
 680,71;32394,000; 1208,000;    0,000
 680,97;32636,000;  967,000;    0,000
 681,24;32753,000; 1171,000;    0,000
 681,50;33545,000; 2081,000;    0,000
 681,76;32751,000; 1433,000;    0,000
 682,03;33479,000; 1431,000;    0,000
 682,29;33176,000; 1003,000;    0,000
 682,55;33603,000; 1444,000;    0,000
 682,82;33309,000; 1362,000;    0,000
 683,08;34254,000; 1591,000;    0,000
 683,34;33924,000; 1237,000;    0,000
 683,60;35104,000; 1512,000;    0,000
 683,87;34414,000; 1557,000;    0,000
 684,13;34853,000; 1734,000;    0,000
 684,39;34035,000; 1433,000;    0,000
 684,66;35292,000; 1789,000;    0,000
 684,92;35140,000; 1443,000;    0,000
 685,18;34787,000; 1331,000;    0,000
 685,44;35327,000; 1762,000;    0,000
 685,71;35244,000; 1505,000;    0,000
 685,97;35746,000; 1726,000;    0,000
 686,23;34946,000; 1438,000;    0,000
 686,49;35904,000; 1381,000;    0,000
 686,76;35250,000; 1258,000;    0,000
 687,02;35892,000; 1354,000;    0,000
 687,28;35635,000; 1184,000;    0,000
 687,54;36055,000; 1316,000;    0,000
 687,81;36430,000; 1455,000;    0,000
 688,07;36369,000; 1284,000;    0,000
 688,33;36132,000; 1114,000;    0,000
 688,59;36226,000; 1583,000;    0,000
 688,86;36934,000; 1763,000;    0,000
 689,12;36315,000; 1357,000;    0,000
 689,38;37349,000; 1347,000;    0,000
 689,64;36784,000; 1388,000;    0,000
 689,90;37813,000; 1672,000;    0,000
 690,17;37543,000; 1853,000;    0,000
 690,43;37134,000; 1303,000;    0,000
 690,69;37661,000; 1241,000;    0,000
 690,95;37984,000; 1533,000;    0,000
 691,22;38735,000; 1789,000;    0,000
 691,48;39336,000; 1537,000;    0,000
 691,74;39317,000; 1387,000;    0,000
 692,00;39625,000; 1457,000;    0,000
 692,26;39592,000; 1682,000;    0,000
 692,52;38968,000; 1789,000;    0,000
 692,79;39674,000; 1496,000;    0,000
 693,05;39563,000; 1482,000;    0,000
 693,31;40225,000; 1702,000;    0,000
 693,57;39934,000; 1672,000;    0,000
 693,83;40434,000; 1460,000;    0,000
 694,10;39887,000; 1659,000;    0,000
 694,36;40780,000; 1882,000;    0,000
 694,62;40263,000; 1458,000;    0,000
 694,88;40531,000; 1651,000;    0,000
 695,14;40679,000; 2099,000;    0,000
 695,40;40666,000; 1553,000;    0,000
 695,67;40782,000; 1466,000;    0,000
 695,93;41398,000; 2628,000;    0,000
 696,19;41398,000; 2034,000;    0,000
 696,45;40932,000; 1813,000;    0,000
 696,71;41515,000; 2091,000;    0,000
 696,97;41141,000; 1504,000;    0,000
 697,23;41225,000; 1991,000;    0,000
 697,49;40453,000; 1660,000;    0,000
 697,76;40634,000; 1647,000;    0,000
 698,02;42452,000; 1849,000;    0,000
 698,28;40793,000; 1553,000;    0,000
 698,54;41319,000; 1759,000;    0,000
 698,80;40935,000; 1653,000;    0,000
 699,06;41481,000; 1805,000;    0,000
 699,32;41592,000; 1869,000;    0,000
 699,58;41861,000; 1498,000;    0,000
 699,85;41686,000; 1916,000;    0,000
 700,11;42026,000; 1494,000;    0,000
 700,37;42873,000; 1647,000;    0,000
 700,63;42816,000; 1990,000;    0,000
 700,89;43447,000; 1968,000;    0,000
 701,15;43925,000; 1943,000;    0,000
 701,41;43769,000; 1854,000;    0,000
 701,67;42993,000; 1617,000;    0,000
 701,93;44260,000; 1936,000;    0,000
 702,19;44454,000; 1895,000;    0,000
 702,45;44053,000; 1770,000;    0,000
 702,72;44315,000; 2182,000;    0,000
 702,98;44033,000; 2353,000;    0,000
 703,24;44570,000; 1777,000;    0,000
 703,50;44839,000; 2402,000;    0,000
 703,76;44817,000; 1928,000;    0,000
 704,02;45240,000; 2276,000;    0,000
 704,28;45281,000; 1610,000;    0,000
 704,54;45907,000; 2275,000;    0,000
 704,80;45168,000; 1726,000;    0,000
 705,06;45527,000; 2129,000;    0,000
 705,32;45070,000; 1853,000;    0,000
 705,58;46347,000; 2226,000;    0,000
 705,84;45542,000; 1865,000;    0,000
 706,10;45860,000; 2312,000;    0,000
 706,36;46802,000; 2994,000;    0,000
 706,62;46881,000; 2603,000;    0,000
 706,88;46216,000; 1914,000;    0,000
 707,14;46905,000; 2221,000;    0,000
 707,40;46398,000; 1721,000;    0,000
 707,66;46077,000; 1796,000;    0,000
 707,92;47199,000; 1997,000;    0,000
 708,18;47072,000; 1940,000;    0,000
 708,44;46927,000; 1530,000;    0,000
 708,70;47167,000; 1977,000;    0,000
 708,96;47131,000; 2219,000;    0,000
 709,22;47604,000; 2281,000;    0,000
 709,48;47700,000; 2227,000;    0,000
 709,74;48150,000; 2698,000;    0,000
 710,00;47974,000; 2192,000;    0,000
 710,26;47946,000; 1858,000;    0,000
 710,52;47708,000; 1566,000;    0,000
 710,78;47942,000; 1858,000;    0,000
 711,04;47113,000; 2040,000;    0,000
 711,30;48199,000; 1449,000;    0,000
 711,56;47473,000; 1758,000;    0,000
 711,82;48006,000; 2394,000;    0,000
 712,08;46817,000; 1452,000;    0,000
 712,34;47803,000; 2633,000;    0,000
 712,60;47804,000; 2734,000;    0,000
 712,86;47215,000; 2306,000;    0,000
 713,12;46235,000; 2352,000;    0,000
 713,38;46213,000; 1535,000;    0,000
 713,64;46602,000; 1774,000;    0,000
 713,90;46562,000; 1738,000;    0,000
 714,16;46038,000; 1646,000;    0,000
 714,42;46332,000; 1799,000;    0,000
 714,68;47663,000; 2275,000;    0,000
 714,94;48111,000; 2378,000;    0,000
 715,20;46683,000; 1936,000;    0,000
 715,45;47133,000; 1814,000;    0,000
 715,71;47786,000; 1979,000;    0,000
 715,97;46750,000; 1702,000;    0,000
 716,23;47754,000; 2300,000;    0,000
 716,49;48904,000; 2311,000;    0,000
 716,75;47491,000; 1566,000;    0,000
 717,01;48275,000; 2094,000;    0,000
 717,27;47419,000; 1644,000;    0,000
 717,53;49263,000; 2251,000;    0,000
 717,79;48382,000; 1599,000;    0,000
 718,05;49078,000; 2878,000;    0,000
 718,31;48518,000; 1592,000;    0,000
 718,56;48798,000; 1887,000;    0,000
 718,82;48724,000; 1847,000;    0,000
 719,08;49425,000; 1816,000;    0,000
 719,34;48829,000; 1324,000;    0,000
 719,60;49569,000; 1967,000;    0,000
 719,86;49043,000; 1651,000;    0,000
 720,12;49242,000; 1424,000;    0,000
 720,38;49105,000; 1749,000;    0,000
 720,63;50157,000; 2537,000;    0,000
 720,89;50351,000; 2445,000;    0,000
 721,15;49938,000; 2174,000;    0,000
 721,41;49841,000; 1509,000;    0,000
 721,67;50865,000; 1695,000;    0,000
 721,93;50847,000; 2046,000;    0,000
 722,19;50330,000; 1999,000;    0,000
 722,44;51501,000; 2024,000;    0,000
 722,70;51977,000; 1975,000;    0,000
 722,96;50943,000; 2057,000;    0,000
 723,22;52332,000; 1948,000;    0,000
 723,48;52633,000; 1729,000;    0,000
 723,74;54381,000; 2315,000;    0,000
 723,99;54293,000; 2253,000;    0,000
 724,25;55344,000; 2555,000;    0,000
 724,51;55506,000; 2325,000;    0,000
 724,77;56019,000; 2125,000;    0,000
 725,03;56831,000; 2249,000;    0,000
 725,29;56825,000; 1923,000;    0,000
 725,54;56902,000; 2259,000;    0,000
 725,80;57479,000; 2285,000;    0,000
 726,06;58436,000; 1900,000;    0,000
 726,32;58226,000; 1833,000;    0,000
 726,58;59421,000; 2285,000;    0,000
 726,83;58539,000; 2360,000;    0,000
 727,09;59152,000; 2354,000;    0,000
 727,35;59414,000; 2205,000;    0,000
 727,61;59213,000; 2008,000;    0,000
 727,87;59287,000; 2109,000;    0,000
 728,12;59736,000; 2389,000;    0,000
 728,38;60686,000; 2440,000;    0,000
 728,64;60561,000; 2580,000;    0,000
 728,90;61397,000; 2413,000;    0,000
 729,15;60156,000; 2096,000;    0,000
 729,41;60470,000; 2385,000;    0,000
 729,67;61361,000; 2933,000;    0,000
 729,93;59761,000; 2181,000;    0,000
 730,18;59799,000; 2004,000;    0,000
 730,44;60582,000; 2219,000;    0,000
 730,70;60115,000; 1932,000;    0,000
 730,96;60491,000; 2281,000;    0,000
 731,21;60329,000; 1992,000;    0,000
 731,47;60596,000; 2679,000;    0,000
 731,73;62141,000; 2405,000;    0,000
 731,99;63644,000; 3041,000;    0,000
 732,24;63326,000; 2618,000;    0,000
 732,50;63644,000; 2797,000;    0,000
 732,76;63544,000; 2457,000;    0,000
 733,02;63644,000; 3119,000;    0,000
 733,27;63544,000; 3028,000;    0,000
 733,53;63644,000; 2718,000;    0,000
 733,79;63544,000; 3222,000;    0,000
 734,04;63644,000; 2725,000;    0,000
 734,30;63544,000; 2751,000;    0,000
 734,56;63644,000; 2683,000;    0,000
 734,82;63544,000; 2596,000;    0,000
 735,07;63644,000; 2928,000;    0,000
 735,33;63544,000; 2530,000;    0,000
 735,59;63644,000; 3308,000;    0,000
 735,84;63544,000; 3215,000;    0,000
 736,10;63047,000; 2673,000;    0,000
 736,36;62630,000; 2739,000;    0,000
 736,61;62092,000; 3064,000;    0,000
 736,87;62695,000; 2389,000;    0,000
 737,13;61627,000; 2402,000;    0,000
 737,38;61066,000; 2270,000;    0,000
 737,64;61073,000; 2428,000;    0,000
 737,90;61422,000; 2403,000;    0,000
 738,15;61602,000; 2815,000;    0,000
 738,41;61354,000; 2882,000;    0,000
 738,67;60429,000; 2260,000;    0,000
 738,92;59033,000; 2379,000;    0,000
 739,18;60045,000; 2968,000;    0,000
 739,44;59257,000; 2651,000;    0,000
 739,69;58901,000; 2540,000;    0,000
 739,95;59145,000; 2313,000;    0,000
 740,21;59543,000; 2756,000;    0,000
 740,46;58401,000; 2407,000;    0,000
 740,72;58561,000; 2500,000;    0,000
 740,98;57265,000; 2835,000;    0,000
 741,23;57339,000; 2321,000;    0,000
 741,49;56454,000; 2739,000;    0,000
 741,74;56543,000; 2434,000;    0,000
 742,00;56815,000; 1951,000;    0,000
 742,26;55233,000; 2156,000;    0,000
 742,51;54712,000; 1986,000;    0,000
 742,77;53921,000; 1810,000;    0,000
 743,02;52542,000; 2234,000;    0,000
 743,28;52714,000; 1586,000;    0,000
 743,54;52453,000; 1781,000;    0,000
 743,79;54092,000; 2300,000;    0,000
 744,05;52927,000; 1958,000;    0,000
 744,30;53111,000; 2212,000;    0,000
 744,56;52559,000; 2330,000;    0,000
 744,82;52307,000; 1915,000;    0,000
 745,07;53404,000; 2491,000;    0,000
 745,33;55136,000; 2316,000;    0,000
 745,58;56184,000; 2637,000;    0,000
 745,84;56890,000; 2676,000;    0,000
 746,09;57944,000; 2975,000;    0,000
 746,35;58856,000; 2746,000;    0,000
 746,61;59158,000; 3067,000;    0,000
 746,86;59690,000; 2669,000;    0,000
 747,12;59611,000; 3123,000;    0,000
 747,37;60610,000; 3450,000;    0,000
 747,63;59748,000; 3184,000;    0,000
 747,88;60743,000; 3676,000;    0,000
 748,14;61099,000; 3408,000;    0,000
 748,39;61034,000; 3290,000;    0,000
 748,65;60987,000; 3370,000;    0,000
 748,91;60586,000; 3157,000;    0,000
 749,16;60712,000; 3003,000;    0,000
 749,42;60186,000; 3463,000;    0,000
 749,67;59629,000; 3144,000;    0,000
 749,93;59830,000; 3246,000;    0,000
 750,18;59787,000; 3578,000;    0,000
 750,44;60280,000; 4068,000;    0,000
 750,69;59603,000; 3439,000;    0,000
 750,95;59583,000; 3667,000;    0,000
 751,20;58399,000; 3504,000;    0,000
 751,46;58330,000; 3356,000;    0,000
 751,71;57560,000; 3731,000;    0,000
 751,97;57844,000; 3596,000;    0,000
 752,22;56860,000; 3055,000;    0,000
 752,48;56498,000; 2901,000;    0,000
 752,73;57327,000; 4101,000;    0,000
 752,99;54912,000; 2790,000;    0,000
 753,24;54378,000; 2895,000;    0,000
 753,50;54840,000; 3368,000;    0,000
 753,75;53845,000; 3806,000;    0,000
 754,01;52550,000; 2547,000;    0,000
 754,26;51348,000; 2754,000;    0,000
 754,51;51045,000; 3080,000;    0,000
 754,77;49474,000; 2813,000;    0,000
 755,02;48153,000; 2336,000;    0,000
 755,28;46855,000; 2551,000;    0,000
 755,53;44438,000; 2074,000;    0,000
 755,79;43437,000; 2183,000;    0,000
 756,04;42125,000; 2469,000;    0,000
 756,30;39525,000; 2029,000;    0,000
 756,55;38536,000; 2124,000;    0,000
 756,81;39007,000; 2284,000;    0,000
 757,06;41229,000; 3036,000;    0,000
 757,31;41055,000; 2262,000;    0,000
 757,57;41303,000; 2305,000;    0,000
 757,82;40738,000; 2727,000;    0,000
 758,08;41862,000; 2417,000;    0,000
 758,33;41955,000; 2733,000;    0,000
 758,59;43288,000; 2994,000;    0,000
 758,84;43692,000; 2876,000;    0,000
 759,09;44211,000; 2738,000;    0,000
 759,35;44405,000; 2708,000;    0,000
 759,60;46328,000; 3403,000;    0,000
 759,86;46664,000; 3882,000;    0,000
 760,11;47696,000; 3843,000;    0,000
 760,36;47588,000; 3480,000;    0,000
 760,62;46745,000; 3507,000;    0,000
 760,87;47598,000; 3591,000;    0,000
 761,13;47528,000; 3560,000;    0,000
 761,38;48356,000; 4159,000;    0,000
 761,63;47618,000; 3781,000;    0,000
 761,89;48375,000; 3875,000;    0,000
 762,14;48201,000; 4452,000;    0,000
 762,39;46578,000; 3599,000;    0,000
 762,65;47792,000; 4038,000;    0,000
 762,90;47219,000; 4110,000;    0,000
 763,16;47080,000; 4216,000;    0,000
 763,41;45907,000; 3939,000;    0,000
 763,66;45949,000; 3574,000;    0,000
 763,92;46596,000; 4298,000;    0,000
 764,17;45334,000; 3874,000;    0,000
 764,42;45190,000; 3903,000;    0,000
 764,68;45400,000; 4068,000;    0,000
 764,93;45157,000; 3610,000;    0,000
 765,18;43956,000; 3538,000;    0,000
 765,44;43871,000; 3528,000;    0,000
 765,69;45769,000; 4890,000;    0,000
 765,94;45068,000; 3677,000;    0,000
 766,20;45949,000; 4772,000;    0,000
 766,45;45334,000; 4354,000;    0,000
 766,70;44876,000; 4289,000;    0,000
 766,96;43737,000; 3930,000;    0,000
 767,21;43340,000; 4269,000;    0,000
 767,46;42263,000; 3623,000;    0,000
 767,72;41641,000; 3920,000;    0,000
 767,97;40208,000; 3756,000;    0,000
 768,22;39631,000; 3730,000;    0,000
 768,47;38146,000; 3882,000;    0,000
 768,73;37614,000; 3580,000;    0,000
 768,98;34759,000; 3037,000;    0,000
 769,23;33638,000; 3073,000;    0,000
 769,49;31204,000; 3018,000;    0,000
 769,74;27417,000; 2530,000;    0,000
 769,99;25095,000; 2185,000;    0,000
 770,24;25540,000; 2503,000;    0,000
 770,50;25227,000; 2200,000;    0,000
 770,75;24970,000; 2422,000;    0,000
 771,00;24523,000; 2268,000;    0,000
 771,25;24548,000; 1677,000;    0,000
 771,51;24648,000; 1959,000;    0,000
 771,76;24506,000; 1765,000;    0,000
 772,01;24211,000; 2076,000;    0,000
 772,26;23708,000; 1755,000;    0,000
 772,52;23796,000; 1750,000;    0,000
 772,77;22754,000; 1570,000;    0,000
 773,02;23543,000; 1720,000;    0,000
 773,27;23380,000; 1931,000;    0,000
 773,53;22208,000; 1887,000;    0,000
 773,78;22440,000; 1982,000;    0,000
 774,03;22455,000; 1466,000;    0,000
 774,28;22034,000; 2081,000;    0,000
 774,54;21120,000; 1851,000;    0,000
 774,79;21020,000; 1866,000;    0,000
 775,04;21378,000; 1966,000;    0,000
 775,29;20578,000; 1736,000;    0,000
 775,54;19645,000; 1122,000;    0,000
 775,80;19948,000; 1476,000;    0,000
 776,05;19206,000; 1286,000;    0,000
 776,30;18909,000; 1496,000;    0,000
 776,55;18067,000; 1637,000;    0,000
 776,80;18459,000; 1880,000;    0,000
 777,06;17150,000; 1245,000;    0,000
 777,31;16749,000; 1748,000;    0,000
 777,56;15303,000;  687,000;    0,000
 777,81;14808,000; 1099,000;    0,000
 778,06;13594,000;  649,000;    0,000
 778,32;14141,000; 1343,000;    0,000
 778,57;12351,000;  805,000;    0,000
 778,82;10384,000;  504,000;    0,000
 779,07;10086,000;  265,000;    0,000
 779,32;10215,000;  267,000;    0,000
 779,57; 9687,000;   87,000;    0,000
 779,83; 9690,000;  201,000;    0,000
 780,08; 9508,000;  297,000;    0,000
 780,33; 9863,000;  505,000;    0,000
 780,58;10328,000;  857,000;    0,000
 780,83; 9698,000;  556,000;    0,000
 781,08; 9405,000;  556,000;    0,000
 781,33; 9166,000;  447,000;    0,000
 781,59; 8712,000;  -18,000;    0,000
 781,84; 8616,000;  179,000;    0,000
 782,09; 9003,000;  241,000;    0,000
 782,34; 8193,000;   95,000;    0,000
 782,59; 8447,000;  257,000;    0,000
 782,84; 8722,000;  706,000;    0,000
 783,09; 8608,000;  359,000;    0,000
 783,34; 8422,000;  769,000;    0,000
 783,59; 8011,000;  301,000;    0,000
 783,85; 8050,000;  223,000;    0,000
 784,10; 7523,000;  104,000;    0,000
 784,35; 8518,000;  734,000;    0,000
 784,60; 7727,000;  388,000;    0,000
 784,85; 7792,000;  405,000;    0,000
 785,10; 7731,000;  507,000;    0,000
 785,35; 7308,000;  171,000;    0,000
 785,60; 6771,000;  -24,000;    0,000
 785,85; 7612,000;  577,000;    0,000
 786,10; 7078,000;  330,000;    0,000
 786,35; 7930,000; 1314,000;    0,000
 786,61; 7374,000;  959,000;    0,000
 786,86; 7026,000;  529,000;    0,000
 787,11; 6742,000;  282,000;    0,000
 787,36; 7533,000; 1014,000;    0,000
 787,61; 6853,000;  608,000;    0,000
 787,86; 6821,000;  408,000;    0,000
 788,11; 7679,000;  612,000;    0,000
 788,36; 8013,000;  436,000;    0,000
 788,61; 8357,000;  618,000;    0,000
 788,86; 8893,000;  875,000;    0,000
 789,11; 9301,000;  923,000;    0,000
 789,36; 9134,000;  723,000;    0,000
 789,61; 9557,000;  895,000;    0,000
 789,86;10105,000; 1276,000;    0,000
 790,11; 9989,000; 1121,000;    0,000
 790,36;10355,000; 1116,000;    0,000
 790,61;10037,000;  901,000;    0,000
 790,86;10211,000; 1014,000;    0,000
 791,11;10859,000; 1447,000;    0,000
 791,36;10727,000; 1213,000;    0,000
 791,61;10882,000; 1443,000;    0,000
 791,86;11589,000; 1279,000;    0,000
 792,11;11262,000; 1636,000;    0,000
 792,36;10664,000; 1194,000;    0,000
 792,61;11360,000; 1704,000;    0,000
 792,86;11359,000; 1466,000;    0,000
 793,11;11659,000; 1887,000;    0,000
 793,36;10563,000; 1127,000;    0,000
 793,61;10850,000; 1230,000;    0,000
 793,86;11588,000; 1613,000;    0,000
 794,11;11620,000; 1310,000;    0,000
 794,36;12218,000; 1610,000;    0,000
 794,61;13156,000; 1915,000;    0,000
 794,86;14031,000; 1992,000;    0,000
 795,11;13900,000; 2018,000;    0,000
 795,36;15160,000; 2376,000;    0,000
 795,61;15431,000; 2436,000;    0,000
 795,86;16190,000; 2556,000;    0,000
 796,11;16468,000; 2457,000;    0,000
 796,36;16198,000; 2548,000;    0,000
 796,61;16712,000; 2823,000;    0,000
 796,86;16650,000; 2599,000;    0,000
 797,11;17085,000; 2489,000;    0,000
 797,36;17394,000; 3079,000;    0,000
 797,60;17025,000; 2595,000;    0,000
 797,85;17594,000; 3166,000;    0,000
 798,10;18269,000; 3433,000;    0,000
 798,35;17313,000; 2619,000;    0,000
 798,60;17755,000; 3061,000;    0,000
 798,85;17847,000; 2954,000;    0,000
 799,10;17693,000; 3524,000;    0,000
 799,35;17271,000; 2893,000;    0,000
 799,60;16907,000; 3003,000;    0,000
 799,85;16384,000; 3193,000;    0,000
 800,10;15776,000; 2512,000;    0,000
 800,34;14827,000; 2327,000;    0,000
 800,59;14458,000; 2292,000;    0,000
 800,84;14184,000; 2184,000;    0,000
 801,09;13560,000; 2768,000;    0,000
 801,34;13322,000; 2835,000;    0,000
 801,59;12624,000; 2169,000;    0,000
 801,84;13193,000; 2361,000;    0,000
 802,09;12234,000; 2103,000;    0,000
 802,34;12954,000; 2045,000;    0,000
 802,58;13347,000; 1925,000;    0,000
 802,83;14302,000; 2299,000;    0,000
 803,08;14503,000; 1954,000;    0,000
 803,33;15411,000; 2216,000;    0,000
 803,58;16031,000; 2384,000;    0,000
 803,83;17688,000; 2719,000;    0,000
 804,08;17637,000; 2447,000;    0,000
 804,32;19626,000; 3912,000;    0,000
 804,57;19728,000; 3065,000;    0,000
 804,82;22976,000; 3231,000;    0,000
 805,07;24620,000; 3501,000;    0,000
 805,32;25725,000; 4108,000;    0,000
 805,57;26875,000; 4379,000;    0,000
 805,81;27960,000; 4443,000;    0,000
 806,06;29058,000; 4791,000;    0,000
 806,31;29424,000; 4369,000;    0,000
 806,56;30583,000; 4769,000;    0,000
 806,81;30628,000; 5134,000;    0,000
 807,05;30108,000; 4781,000;    0,000
 807,30;31889,000; 5504,000;    0,000
 807,55;31348,000; 5770,000;    0,000
 807,80;31154,000; 5047,000;    0,000
 808,05;31158,000; 5154,000;    0,000
 808,29;32228,000; 5855,000;    0,000
 808,54;32849,000; 5809,000;    0,000
 808,79;34240,000; 5958,000;    0,000
 809,04;32861,000; 5653,000;    0,000
 809,29;33371,000; 5808,000;    0,000
 809,53;33978,000; 5671,000;    0,000
 809,78;34509,000; 6089,000;    0,000
 810,03;33952,000; 5852,000;    0,000
 810,28;33785,000; 5851,000;    0,000
 810,52;33614,000; 5809,000;    0,000
 810,77;34217,000; 5702,000;    0,000
 811,02;34139,000; 6390,000;    0,000
 811,27;33808,000; 5757,000;    0,000
 811,51;34035,000; 6167,000;    0,000
 811,76;33079,000; 6005,000;    0,000
 812,01;32803,000; 5648,000;    0,000
 812,26;33454,000; 6118,000;    0,000
 812,50;32120,000; 5606,000;    0,000
 812,75;31398,000; 5310,000;    0,000
 813,00;31232,000; 5520,000;    0,000
 813,25;30414,000; 5629,000;    0,000
 813,49;29043,000; 5186,000;    0,000
 813,74;28772,000; 5256,000;    0,000
 813,99;28687,000; 5192,000;    0,000
 814,23;27718,000; 5689,000;    0,000
 814,48;26041,000; 5716,000;    0,000
 814,73;24554,000; 5030,000;    0,000
 814,98;23098,000; 4597,000;    0,000
 815,22;21768,000; 4867,000;    0,000
 815,47;19263,000; 3816,000;    0,000
 815,72;17455,000; 3887,000;    0,000
 815,96;16135,000; 3778,000;    0,000
 816,21;14333,000; 3047,000;    0,000
 816,46;12582,000; 2695,000;    0,000
 816,70;11186,000; 3019,000;    0,000
 816,95; 8846,000; 2181,000;    0,000
 817,20; 8004,000; 1874,000;    0,000
 817,44; 6159,000; 1423,000;    0,000
 817,69; 4381,000; 1062,000;    0,000
 817,94; 2283,000; 1045,000;    0,000
 818,18; 1445,000;  351,000;    0,000
 818,43; 1510,000;  226,000;    0,000
 818,68; 1458,000;  114,000;    0,000
 818,92; 1817,000;  372,000;    0,000
 819,17; 1592,000;  313,000;    0,000
 819,42; 1353,000;  -69,000;    0,000
 819,66; 1925,000;   94,000;    0,000
 819,91; 2573,000;  612,000;    0,000
 820,16; 2777,000;  627,000;    0,000
 820,40; 3200,000; 1054,000;    0,000
 820,65; 2993,000;  802,000;    0,000
 820,90; 2741,000;  166,000;    0,000
 821,14; 2793,000;  421,000;    0,000
 821,39; 3079,000;  435,000;    0,000
 821,63; 2938,000;  558,000;    0,000
 821,88; 2849,000;  154,000;    0,000
 822,13; 3061,000;  384,000;    0,000
 822,37; 3711,000;  888,000;    0,000
 822,62; 3322,000;  666,000;    0,000
 822,86; 3365,000;  510,000;    0,000
 823,11; 3395,000;  472,000;    0,000
 823,36; 3887,000;  859,000;    0,000
 823,60; 4206,000; 1039,000;    0,000
 823,85; 3831,000; 1076,000;    0,000
 824,09; 3837,000; 1000,000;    0,000
 824,34; 3428,000;  725,000;    0,000
 824,59; 3918,000;  830,000;    0,000
 824,83; 3911,000;  745,000;    0,000
 825,08; 3476,000;  347,000;    0,000
 825,32; 3545,000;  611,000;    0,000
 825,57; 3780,000;  719,000;    0,000
 825,81; 3833,000;  880,000;    0,000
 826,06; 3688,000;  415,000;    0,000
 826,30; 3320,000;  363,000;    0,000
 826,55; 3517,000;  710,000;    0,000
 826,80; 3526,000;  549,000;    0,000
 827,04; 4531,000; 1297,000;    0,000
 827,29; 3508,000;  725,000;    0,000
 827,53; 3826,000; 1172,000;    0,000
 827,78; 3561,000;  962,000;    0,000
 828,02; 3567,000;  681,000;    0,000
 828,27; 3440,000;  698,000;    0,000
 828,51; 3396,000;  693,000;    0,000
 828,76; 3361,000;  661,000;    0,000
 829,00; 3375,000;  848,000;    0,000
 829,25; 3428,000;  704,000;    0,000
 829,49; 3322,000;  688,000;    0,000
 829,74; 3234,000;  864,000;    0,000
 829,98; 3097,000;  707,000;    0,000
 830,23; 2838,000;  629,000;    0,000
 830,47; 3088,000;  729,000;    0,000
 830,72; 2675,000;  553,000;    0,000
 830,96; 2847,000;  681,000;    0,000
 831,21; 1697,000;   45,000;    0,000
 831,45; 3025,000; 1051,000;    0,000
 831,70; 1752,000;  234,000;    0,000
 831,94; 1888,000;  307,000;    0,000
 832,19; 1682,000;  476,000;    0,000
 832,43; 1211,000;  301,000;    0,000
 832,68; 1329,000;  635,000;    0,000
 832,92; 1008,000;  414,000;    0,000
 833,17;  290,000; -119,000;    0,000
 833,41; 1715,000;  795,000;    0,000
 833,66;  686,000;  182,000;    0,000
 833,90; 1197,000;  414,000;    0,000
 834,14; 1286,000;   -2,000;    0,000
 834,39; 1943,000;  295,000;    0,000
 834,63; 2188,000;  515,000;    0,000
 834,88; 2639,000;  606,000;    0,000
 835,12; 2989,000;  808,000;    0,000
 835,37; 3053,000;  914,000;    0,000
 835,61; 3664,000;  653,000;    0,000
 835,86; 5522,000; 1520,000;    0,000
 836,10; 4766,000;  652,000;    0,000
 836,34; 5661,000; 1151,000;    0,000
 836,59; 6161,000;  970,000;    0,000
 836,83; 6710,000; 1217,000;    0,000
 837,08; 7419,000; 1617,000;    0,000
 837,32; 7877,000; 1677,000;    0,000
 837,56; 7651,000; 1429,000;    0,000
 837,81; 8111,000; 1446,000;    0,000
 838,05; 8465,000; 1966,000;    0,000
 838,30; 9230,000; 1855,000;    0,000
 838,54; 9065,000; 1886,000;    0,000
 838,78; 9490,000; 2107,000;    0,000
 839,03; 9734,000; 1872,000;    0,000
 839,27;10499,000; 2296,000;    0,000
 839,52;10733,000; 2579,000;    0,000
 839,76;10317,000; 2188,000;    0,000
 840,00;11357,000; 3117,000;    0,000
 840,25;10061,000; 2097,000;    0,000
 840,49;10574,000; 2265,000;    0,000
 840,73;10437,000; 2454,000;    0,000
 840,98;10319,000; 2283,000;    0,000
 841,22;10267,000; 2149,000;    0,000
 841,46;11147,000; 2430,000;    0,000
 841,71;10753,000; 2393,000;    0,000
 841,95;10567,000; 2330,000;    0,000
 842,19;10644,000; 2452,000;    0,000
 842,44;10230,000; 2072,000;    0,000
 842,68;10200,000; 2282,000;    0,000
 842,92; 9837,000; 2346,000;    0,000
 843,17;10356,000; 2216,000;    0,000
 843,41;10072,000; 2281,000;    0,000
 843,65;10549,000; 2697,000;    0,000
 843,90;10218,000; 2236,000;    0,000
 844,14;10119,000; 2516,000;    0,000
 844,38; 9368,000; 2277,000;    0,000
 844,63; 9222,000; 1963,000;    0,000
 844,87; 8855,000; 2238,000;    0,000
 845,11; 8883,000; 2449,000;    0,000
 845,36; 8058,000; 1793,000;    0,000
 845,60; 7952,000; 1729,000;    0,000
 845,84; 7779,000; 1593,000;    0,000
 846,08; 8052,000; 2012,000;    0,000
 846,33; 7442,000; 1964,000;    0,000
 846,57; 6813,000; 1695,000;    0,000
 846,81; 5726,000; 1404,000;    0,000
 847,06; 6194,000; 1901,000;    0,000
 847,30; 4756,000; 1473,000;    0,000
 847,54; 4575,000; 1071,000;    0,000
 847,78; 4287,000; 1199,000;    0,000
 848,03; 3703,000;  917,000;    0,000
 848,27; 3817,000; 1202,000;    0,000
 848,51; 3346,000; 1101,000;    0,000
 848,75; 2692,000; 1295,000;    0,000
 849,00; 2532,000; 1078,000;    0,000
 849,24; 1978,000;  436,000;    0,000
 849,48; 1811,000;  226,000;    0,000
 849,72; 2413,000;  738,000;    0,000
 849,97; 2832,000; 1022,000;    0,000
 850,21; 2424,000;  726,000;    0,000
 850,45; 2823,000;  935,000;    0,000
 850,69; 2180,000;  544,000;    0,000
 850,94; 2163,000;  502,000;    0,000
 851,18; 1972,000;  282,000;    0,000
 851,42; 2190,000;  374,000;    0,000
 851,66; 2450,000;  947,000;    0,000
 851,90; 2286,000;  581,000;    0,000
 852,15; 2226,000;  628,000;    0,000
 852,39; 1860,000;  484,000;    0,000
 852,63; 1941,000;  204,000;    0,000
 852,87; 2789,000; 1042,000;    0,000
 853,11; 2025,000;  428,000;    0,000
 853,36; 2627,000;  651,000;    0,000
 853,60; 2286,000;  747,000;    0,000
 853,84; 2545,000;  937,000;    0,000
 854,08; 2227,000;  816,000;    0,000
 854,32; 1877,000;  381,000;    0,000
 854,56; 2148,000;  663,000;    0,000
 854,81; 2663,000; 1070,000;    0,000
 855,05; 1917,000;  396,000;    0,000
 855,29; 2518,000; 1075,000;    0,000
 855,53; 1491,000;  280,000;    0,000
 855,77; 2094,000;  660,000;    0,000
 856,01; 1760,000;  426,000;    0,000
 856,26; 1619,000;  589,000;    0,000
 856,50; 1559,000;  427,000;    0,000
 856,74; 1094,000;   91,000;    0,000
 856,98; 1605,000;  689,000;    0,000
 857,22; 1374,000;  614,000;    0,000
 857,46; 1196,000;  494,000;    0,000
 857,70; 1338,000;  652,000;    0,000
 857,94; 1199,000;  575,000;    0,000
 858,19;  851,000;  283,000;    0,000
 858,43;  489,000;  176,000;    0,000
 858,67;  430,000;  166,000;    0,000
 858,91;  823,000;  585,000;    0,000
 859,15;  352,000;  144,000;    0,000
 859,39;  816,000;  489,000;    0,000
 859,63;  487,000;  337,000;    0,000
 859,87; 1705,000; 1396,000;    0,000
 860,11;  556,000;  315,000;    0,000
 860,35;  376,000;   91,000;    0,000
 860,60;  386,000;  -45,000;    0,000
 860,84;  424,000;   70,000;    0,000
 861,08;  727,000;  537,000;    0,000
 861,32;  766,000;  487,000;    0,000
 861,56; 1244,000;  612,000;    0,000
 861,80;  793,000;  463,000;    0,000
 862,04;  902,000;  688,000;    0,000
 862,28; 1538,000;  990,000;    0,000
 862,52;  913,000;  598,000;    0,000
 862,76;  618,000;  483,000;    0,000
 863,00; 1535,000; 1098,000;    0,000
 863,24;  501,000;  177,000;    0,000
 863,48;  963,000;  580,000;    0,000
 863,72; 1083,000;  688,000;    0,000
 863,96; 1685,000; 1254,000;    0,000
 864,20; 1236,000;  892,000;    0,000
 864,44; 1209,000;  569,000;    0,000
 864,69;  710,000;  311,000;    0,000
 864,93; 1048,000;  363,000;    0,000
 865,17;  665,000;  152,000;    0,000
 865,41; 2156,000; 1233,000;    0,000
 865,65; 1051,000;  308,000;    0,000
 865,89; 1103,000;  374,000;    0,000
 866,13; 1264,000;  583,000;    0,000
 866,37; 1935,000; 1073,000;    0,000
 866,61; 1200,000;  338,000;    0,000
 866,85; 1552,000;  587,000;    0,000
 867,09; 1302,000;  412,000;    0,000
 867,33; 2256,000; 1328,000;    0,000
 867,57; 2142,000;  926,000;    0,000
 867,81; 2040,000;  894,000;    0,000
 868,05; 1756,000;  671,000;    0,000
 868,29; 1649,000;  633,000;    0,000
 868,53; 1840,000;  691,000;    0,000
 868,76; 2073,000;  988,000;    0,000
 869,00; 1536,000;  622,000;    0,000
 869,24; 2208,000;  980,000;    0,000
 869,48; 1799,000;  772,000;    0,000
 869,72; 1510,000;  412,000;    0,000
 869,96; 1715,000;  597,000;    0,000
 870,20; 1952,000;  822,000;    0,000
 870,44; 1748,000;  719,000;    0,000
 870,68; 2382,000; 1205,000;    0,000
 870,92; 1871,000;  753,000;    0,000
 871,16; 2026,000;  811,000;    0,000
 871,40; 2600,000; 1452,000;    0,000
 871,64; 2272,000; 1108,000;    0,000
 871,88; 1539,000;  604,000;    0,000
 872,12; 1788,000;  707,000;    0,000
 872,36; 2237,000; 1079,000;    0,000
 872,60; 1968,000;  851,000;    0,000
 872,83; 1470,000;  687,000;    0,000
 873,07; 2194,000; 1255,000;    0,000
 873,31; 1760,000;  871,000;    0,000
 873,55; 1955,000; 1258,000;    0,000
 873,79; 1592,000;  649,000;    0,000
 874,03; 1837,000;  968,000;    0,000
 874,27; 1669,000;  693,000;    0,000
 874,51; 1580,000;  908,000;    0,000
 874,75; 1858,000;  968,000;    0,000
 874,99; 1790,000;  947,000;    0,000
 875,22; 2115,000; 1189,000;    0,000
 875,46; 1347,000;  775,000;    0,000
 875,70; 1486,000;  879,000;    0,000
 875,94; 2037,000; 1099,000;    0,000
 876,18; 1603,000; 1107,000;    0,000
 876,42; 1250,000;  827,000;    0,000
 876,66; 1674,000; 1175,000;    0,000
 876,89; 1471,000; 1014,000;    0,000
 877,13; 1501,000; 1229,000;    0,000
 877,37; 1356,000;  802,000;    0,000
 877,61; 1477,000; 1127,000;    0,000
 877,85; 1903,000; 1670,000;    0,000
 878,09; 2142,000; 1838,000;    0,000
 878,33; 1467,000; 1203,000;    0,000
 878,56; 1448,000; 1142,000;    0,000
 878,80; 1461,000; 1142,000;    0,000
 879,04; 1742,000; 1568,000;    0,000
 879,28; 1737,000; 1668,000;    0,000
 879,52; 1434,000; 1195,000;    0,000
 879,75; 1808,000; 1618,000;    0,000
 879,99; 1887,000; 1584,000;    0,000
 880,23; 1699,000; 1369,000;    0,000
 880,47; 1791,000; 1581,000;    0,000
 880,71; 1913,000; 1706,000;    0,000
 880,95; 2152,000; 2066,000;    0,000
 881,18; 1938,000; 1757,000;    0,000
 881,42; 2312,000; 2202,000;    0,000
 881,66; 2420,000; 2555,000;    0,000
 881,90; 2387,000; 2050,000;    0,000
 882,13; 2292,000; 2238,000;    0,000
 882,37; 2439,000; 2528,000;    0,000
 882,61; 2886,000; 2750,000;    0,000
 882,85; 3106,000; 2749,000;    0,000
 883,09; 3478,000; 3200,000;    0,000
 883,32; 3522,000; 3452,000;    0,000
 883,56; 3934,000; 3739,000;    0,000
 883,80; 3735,000; 3764,000;    0,000
 884,04; 4587,000; 4057,000;    0,000
 884,27; 5509,000; 5097,000;    0,000
 884,51; 5277,000; 4775,000;    0,000
 884,75; 6327,000; 5777,000;    0,000
 884,99; 7210,000; 6635,000;    0,000
 885,22; 7270,000; 7196,000;    0,000
 885,46; 8629,000; 8313,000;    0,000

