qd4_lake_placid_blue
Integration time [ms]:  500,00
Averaging Nr. [scans]: 1
Smoothing Nr. [pixels]: 0
Data measured with spectrometer [name]: 1412150E1
Wave   ;Sample   ;Dark     ;Reference;Scope
[nm]   ;[counts] ;[counts] ;[counts] 

 337,19;49954,000; 4519,000;    0,000
 337,48;51498,000; 4777,000;    0,000
 337,77;51879,000; 4996,000;    0,000
 338,07;53338,000; 5120,000;    0,000
 338,36;54796,000; 5286,000;    0,000
 338,66;55765,000; 5142,000;    0,000
 338,95;56853,000; 5652,000;    0,000
 339,24;58660,000; 5451,000;    0,000
 339,54;59391,000; 5497,000;    0,000
 339,83;61038,000; 5938,000;    0,000
 340,12;62290,000; 6176,000;    0,000
 340,42;63897,000; 5847,000;    0,000
 340,71;63746,000; 6095,000;    0,000
 341,00;63897,000; 6297,000;    0,000
 341,30;63746,000; 6500,000;    0,000
 341,59;63897,000; 6309,000;    0,000
 341,88;63746,000; 6505,000;    0,000
 342,18;63897,000; 6662,000;    0,000
 342,47;63746,000; 7136,000;    0,000
 342,76;63897,000; 7683,000;    0,000
 343,06;63746,000; 6938,000;    0,000
 343,35;63897,000; 7263,000;    0,000
 343,64;63746,000; 7272,000;    0,000
 343,94;63897,000; 7497,000;    0,000
 344,23;63746,000; 7195,000;    0,000
 344,52;63897,000; 8224,000;    0,000
 344,82;63746,000; 7697,000;    0,000
 345,11;63897,000; 7983,000;    0,000
 345,40;63746,000; 8548,000;    0,000
 345,70;63897,000; 8504,000;    0,000
 345,99;63746,000; 8171,000;    0,000
 346,28;63897,000; 8727,000;    0,000
 346,58;63746,000; 8549,000;    0,000
 346,87;63897,000; 8801,000;    0,000
 347,16;63746,000; 9409,000;    0,000
 347,45;63897,000; 9224,000;    0,000
 347,75;63746,000; 9093,000;    0,000
 348,04;63897,000;10353,000;    0,000
 348,33;63746,000;10122,000;    0,000
 348,63;63897,000;10359,000;    0,000
 348,92;63746,000; 9975,000;    0,000
 349,21;63897,000;10645,000;    0,000
 349,51;63746,000;10752,000;    0,000
 349,80;63897,000;10882,000;    0,000
 350,09;63746,000;10725,000;    0,000
 350,38;63897,000;11350,000;    0,000
 350,68;63746,000;11062,000;    0,000
 350,97;63897,000;12057,000;    0,000
 351,26;63746,000;12382,000;    0,000
 351,55;63897,000;11691,000;    0,000
 351,85;63746,000;11512,000;    0,000
 352,14;63897,000;12062,000;    0,000
 352,43;63746,000;12134,000;    0,000
 352,73;63897,000;12194,000;    0,000
 353,02;63746,000;12961,000;    0,000
 353,31;63897,000;12741,000;    0,000
 353,60;63746,000;13288,000;    0,000
 353,90;63897,000;13402,000;    0,000
 354,19;63746,000;13302,000;    0,000
 354,48;63897,000;13583,000;    0,000
 354,77;63746,000;13930,000;    0,000
 355,07;63897,000;14181,000;    0,000
 355,36;63746,000;14068,000;    0,000
 355,65;63897,000;15094,000;    0,000
 355,94;63746,000;14989,000;    0,000
 356,23;63897,000;15518,000;    0,000
 356,53;63746,000;16018,000;    0,000
 356,82;63897,000;16227,000;    0,000
 357,11;63746,000;16204,000;    0,000
 357,40;63897,000;15979,000;    0,000
 357,70;63746,000;16676,000;    0,000
 357,99;63897,000;17580,000;    0,000
 358,28;63746,000;17299,000;    0,000
 358,57;63897,000;18173,000;    0,000
 358,87;63746,000;17755,000;    0,000
 359,16;63897,000;18435,000;    0,000
 359,45;63746,000;18771,000;    0,000
 359,74;63897,000;19402,000;    0,000
 360,03;63746,000;20186,000;    0,000
 360,33;63897,000;19664,000;    0,000
 360,62;63746,000;19493,000;    0,000
 360,91;63897,000;20114,000;    0,000
 361,20;63746,000;20008,000;    0,000
 361,49;63897,000;20694,000;    0,000
 361,79;63746,000;20705,000;    0,000
 362,08;63897,000;21141,000;    0,000
 362,37;63746,000;21162,000;    0,000
 362,66;63897,000;20959,000;    0,000
 362,95;63746,000;21384,000;    0,000
 363,25;63897,000;21529,000;    0,000
 363,54;63746,000;21446,000;    0,000
 363,83;63897,000;21732,000;    0,000
 364,12;63746,000;21897,000;    0,000
 364,41;63897,000;21721,000;    0,000
 364,70;63746,000;22250,000;    0,000
 365,00;63897,000;22000,000;    0,000
 365,29;63746,000;22139,000;    0,000
 365,58;63897,000;22063,000;    0,000
 365,87;63746,000;21752,000;    0,000
 366,16;63897,000;21322,000;    0,000
 366,45;63746,000;21847,000;    0,000
 366,75;63897,000;21324,000;    0,000
 367,04;63746,000;21463,000;    0,000
 367,33;63897,000;21349,000;    0,000
 367,62;63746,000;21652,000;    0,000
 367,91;63897,000;21204,000;    0,000
 368,20;63746,000;20775,000;    0,000
 368,50;63897,000;21236,000;    0,000
 368,79;63746,000;20604,000;    0,000
 369,08;63897,000;20361,000;    0,000
 369,37;63746,000;20559,000;    0,000
 369,66;63897,000;20310,000;    0,000
 369,95;63746,000;20243,000;    0,000
 370,24;63897,000;20353,000;    0,000
 370,53;63746,000;19478,000;    0,000
 370,83;63897,000;19258,000;    0,000
 371,12;63746,000;18966,000;    0,000
 371,41;63897,000;18842,000;    0,000
 371,70;63746,000;18296,000;    0,000
 371,99;63897,000;18008,000;    0,000
 372,28;63746,000;17604,000;    0,000
 372,57;63897,000;17814,000;    0,000
 372,86;63746,000;16670,000;    0,000
 373,16;63897,000;16681,000;    0,000
 373,45;63746,000;16549,000;    0,000
 373,74;63897,000;15829,000;    0,000
 374,03;63746,000;16024,000;    0,000
 374,32;63897,000;16248,000;    0,000
 374,61;63746,000;15984,000;    0,000
 374,90;63897,000;15269,000;    0,000
 375,19;63746,000;14620,000;    0,000
 375,48;63897,000;14773,000;    0,000
 375,78;63746,000;14703,000;    0,000
 376,07;63897,000;14255,000;    0,000
 376,36;63746,000;14048,000;    0,000
 376,65;63897,000;14089,000;    0,000
 376,94;63746,000;13344,000;    0,000
 377,23;63897,000;13638,000;    0,000
 377,52;63746,000;13325,000;    0,000
 377,81;63897,000;12717,000;    0,000
 378,10;63746,000;13206,000;    0,000
 378,39;63897,000;13371,000;    0,000
 378,68;63746,000;12866,000;    0,000
 378,97;63897,000;12559,000;    0,000
 379,26;63746,000;11454,000;    0,000
 379,56;63897,000;11636,000;    0,000
 379,85;63746,000;12247,000;    0,000
 380,14;63897,000;11310,000;    0,000
 380,43;63746,000;11443,000;    0,000
 380,72;63897,000;12082,000;    0,000
 381,01;63746,000;11839,000;    0,000
 381,30;63897,000;11308,000;    0,000
 381,59;63746,000;11084,000;    0,000
 381,88;63897,000;10752,000;    0,000
 382,17;63746,000;10656,000;    0,000
 382,46;63897,000;11054,000;    0,000
 382,75;63746,000;10779,000;    0,000
 383,04;63897,000;10369,000;    0,000
 383,33;63746,000;10529,000;    0,000
 383,62;63897,000;10143,000;    0,000
 383,91;63746,000; 9842,000;    0,000
 384,20;63897,000;10664,000;    0,000
 384,49;63746,000;10016,000;    0,000
 384,78;63897,000; 9537,000;    0,000
 385,07;63746,000; 9869,000;    0,000
 385,36;63897,000; 9800,000;    0,000
 385,65;63746,000; 9627,000;    0,000
 385,94;63897,000; 9539,000;    0,000
 386,23;63746,000; 9454,000;    0,000
 386,52;63897,000; 8805,000;    0,000
 386,81;63746,000; 9847,000;    0,000
 387,10;63897,000; 9246,000;    0,000
 387,39;63746,000; 8569,000;    0,000
 387,68;63897,000; 8956,000;    0,000
 387,97;63746,000; 9054,000;    0,000
 388,26;63897,000; 8392,000;    0,000
 388,55;63746,000; 8528,000;    0,000
 388,84;63897,000; 8787,000;    0,000
 389,13;63746,000; 8379,000;    0,000
 389,42;63897,000; 8860,000;    0,000
 389,71;63746,000; 8775,000;    0,000
 390,00;63897,000; 8527,000;    0,000
 390,29;63746,000; 8773,000;    0,000
 390,58;63897,000; 8302,000;    0,000
 390,87;63746,000; 8653,000;    0,000
 391,16;63897,000; 8430,000;    0,000
 391,45;63746,000; 8257,000;    0,000
 391,74;63897,000; 8053,000;    0,000
 392,03;63746,000; 8568,000;    0,000
 392,32;63897,000; 7993,000;    0,000
 392,61;63746,000; 7782,000;    0,000
 392,90;63897,000; 7701,000;    0,000
 393,19;63746,000; 7850,000;    0,000
 393,48;63897,000; 7493,000;    0,000
 393,77;63746,000; 7194,000;    0,000
 394,06;63897,000; 7300,000;    0,000
 394,35;63746,000; 7192,000;    0,000
 394,64;63897,000; 7166,000;    0,000
 394,93;63746,000; 6812,000;    0,000
 395,22;63897,000; 7084,000;    0,000
 395,51;63746,000; 7275,000;    0,000
 395,80;63897,000; 6721,000;    0,000
 396,09;63746,000; 6734,000;    0,000
 396,38;63897,000; 6827,000;    0,000
 396,67;63746,000; 6625,000;    0,000
 396,95;63897,000; 7214,000;    0,000
 397,24;63746,000; 7052,000;    0,000
 397,53;63897,000; 8068,000;    0,000
 397,82;63746,000; 8647,000;    0,000
 398,11;63897,000; 9783,000;    0,000
 398,40;63746,000;10706,000;    0,000
 398,69;63897,000;11843,000;    0,000
 398,98;63746,000;12285,000;    0,000
 399,27;63897,000;12832,000;    0,000
 399,56;63746,000;12997,000;    0,000
 399,85;63897,000;13598,000;    0,000
 400,14;63746,000;14305,000;    0,000
 400,42;63897,000;14131,000;    0,000
 400,71;63746,000;13799,000;    0,000
 401,00;63897,000;14597,000;    0,000
 401,29;63746,000;14540,000;    0,000
 401,58;63897,000;14557,000;    0,000
 401,87;63746,000;15101,000;    0,000
 402,16;63897,000;14872,000;    0,000
 402,45;63746,000;14890,000;    0,000
 402,74;63897,000;15279,000;    0,000
 403,03;63746,000;14890,000;    0,000
 403,31;63897,000;15193,000;    0,000
 403,60;63746,000;14965,000;    0,000
 403,89;63897,000;14546,000;    0,000
 404,18;63746,000;14709,000;    0,000
 404,47;63897,000;14314,000;    0,000
 404,76;63746,000;14718,000;    0,000
 405,05;63897,000;14495,000;    0,000
 405,34;63746,000;13520,000;    0,000
 405,62;63897,000;14395,000;    0,000
 405,91;63746,000;14404,000;    0,000
 406,20;63897,000;14296,000;    0,000
 406,49;63746,000;14141,000;    0,000
 406,78;63897,000;13849,000;    0,000
 407,07;63746,000;13801,000;    0,000
 407,36;63897,000;13823,000;    0,000
 407,64;63746,000;13621,000;    0,000
 407,93;63897,000;13981,000;    0,000
 408,22;63746,000;13202,000;    0,000
 408,51;63897,000;13321,000;    0,000
 408,80;63746,000;12237,000;    0,000
 409,09;63897,000;12421,000;    0,000
 409,38;63746,000;11910,000;    0,000
 409,66;63897,000;12082,000;    0,000
 409,95;63746,000;11496,000;    0,000
 410,24;63897,000; 9873,000;    0,000
 410,53;63746,000; 8962,000;    0,000
 410,82;63897,000; 7956,000;    0,000
 411,11;63746,000; 7008,000;    0,000
 411,39;63897,000; 6189,000;    0,000
 411,68;63746,000; 4926,000;    0,000
 411,97;63897,000; 3552,000;    0,000
 412,26;27498,000; 3121,000;    0,000
 412,55;27718,000; 3057,000;    0,000
 412,83;27192,000; 3416,000;    0,000
 413,12;25795,000; 2552,000;    0,000
 413,41;25303,000; 2621,000;    0,000
 413,70;24819,000; 3321,000;    0,000
 413,99;22431,000; 2190,000;    0,000
 414,27;20766,000; 2051,000;    0,000
 414,56;19699,000; 2295,000;    0,000
 414,85;19308,000; 2483,000;    0,000
 415,14;18595,000; 2062,000;    0,000
 415,43;18392,000; 1646,000;    0,000
 415,71;17353,000; 1325,000;    0,000
 416,00;17260,000; 1612,000;    0,000
 416,29;16962,000; 1599,000;    0,000
 416,58;16934,000; 1686,000;    0,000
 416,87;16536,000; 1708,000;    0,000
 417,15;16113,000; 1217,000;    0,000
 417,44;15726,000; 1707,000;    0,000
 417,73;15761,000; 1774,000;    0,000
 418,02;15941,000; 1850,000;    0,000
 418,30;15556,000; 1393,000;    0,000
 418,59;15382,000; 1702,000;    0,000
 418,88;15323,000; 1614,000;    0,000
 419,17;14858,000; 1292,000;    0,000
 419,45;14407,000; 1342,000;    0,000
 419,74;14430,000; 1466,000;    0,000
 420,03;13853,000;  888,000;    0,000
 420,32;14605,000; 1298,000;    0,000
 420,60;14093,000; 1633,000;    0,000
 420,89;13949,000; 1336,000;    0,000
 421,18;14431,000; 1224,000;    0,000
 421,47;13758,000;  915,000;    0,000
 421,75;13579,000;  798,000;    0,000
 422,04;13334,000;  988,000;    0,000
 422,33;13319,000;  919,000;    0,000
 422,62;13445,000; 1261,000;    0,000
 422,90;13143,000;  868,000;    0,000
 423,19;12555,000;  868,000;    0,000
 423,48;13165,000;  953,000;    0,000
 423,77;12799,000;  989,000;    0,000
 424,05;12795,000;  771,000;    0,000
 424,34;12841,000;  777,000;    0,000
 424,63;13364,000; 1289,000;    0,000
 424,91;13410,000; 1252,000;    0,000
 425,20;13330,000;  825,000;    0,000
 425,49;13121,000; 1191,000;    0,000
 425,78;13111,000; 1265,000;    0,000
 426,06;13068,000;  972,000;    0,000
 426,35;13917,000; 1885,000;    0,000
 426,64;13359,000; 1272,000;    0,000
 426,92;13569,000; 1358,000;    0,000
 427,21;12973,000;  772,000;    0,000
 427,50;13342,000;  471,000;    0,000
 427,78;12822,000;  580,000;    0,000
 428,07;21446,000;10971,000;    0,000
 428,36;13060,000;  696,000;    0,000
 428,65;14647,000; 1755,000;    0,000
 428,93;15083,000; 1399,000;    0,000
 429,22;20251,000; 2217,000;    0,000
 429,51;26773,000; 2177,000;    0,000
 429,79;31088,000; 2359,000;    0,000
 430,08;33849,000; 2793,000;    0,000
 430,37;36292,000; 3226,000;    0,000
 430,65;37393,000; 3038,000;    0,000
 430,94;39319,000; 3643,000;    0,000
 431,23;40136,000; 3501,000;    0,000
 431,51;40515,000; 3635,000;    0,000
 431,80;41222,000; 3812,000;    0,000
 432,09;42239,000; 3784,000;    0,000
 432,37;42813,000; 4191,000;    0,000
 432,66;44176,000; 4093,000;    0,000
 432,95;43965,000; 3871,000;    0,000
 433,23;44219,000; 4511,000;    0,000
 433,52;44529,000; 4259,000;    0,000
 433,81;44609,000; 4230,000;    0,000
 434,09;43962,000; 4322,000;    0,000
 434,38;44899,000; 4106,000;    0,000
 434,66;44521,000; 4497,000;    0,000
 434,95;45107,000; 4346,000;    0,000
 435,24;46094,000; 4354,000;    0,000
 435,52;45261,000; 4004,000;    0,000
 435,81;45251,000; 3892,000;    0,000
 436,10;45575,000; 4531,000;    0,000
 436,38;45055,000; 4278,000;    0,000
 436,67;46001,000; 4196,000;    0,000
 436,95;46426,000; 4319,000;    0,000
 437,24;45566,000; 4133,000;    0,000
 437,53;45731,000; 3687,000;    0,000
 437,81;46062,000; 4544,000;    0,000
 438,10;47880,000; 4729,000;    0,000
 438,39;46985,000; 3826,000;    0,000
 438,67;46399,000; 3878,000;    0,000
 438,96;46420,000; 4744,000;    0,000
 439,24;46839,000; 4235,000;    0,000
 439,53;45950,000; 4443,000;    0,000
 439,82;45354,000; 3668,000;    0,000
 440,10;45588,000; 4050,000;    0,000
 440,39;45408,000; 3995,000;    0,000
 440,67;43510,000; 3706,000;    0,000
 440,96;43005,000; 3703,000;    0,000
 441,25;41815,000; 3713,000;    0,000
 441,53;40512,000; 3424,000;    0,000
 441,82;37668,000; 2410,000;    0,000
 442,10;33101,000; 2274,000;    0,000
 442,39;27115,000; 1444,000;    0,000
 442,67;24435,000; 4458,000;    0,000
 442,96;20674,000; 1101,000;    0,000
 443,25;20876,000;  738,000;    0,000
 443,53;21753,000; 1578,000;    0,000
 443,82;21243,000;  791,000;    0,000
 444,10;22006,000; 1148,000;    0,000
 444,39;21985,000; 1098,000;    0,000
 444,67;22430,000; 1066,000;    0,000
 444,96;22338,000;  674,000;    0,000
 445,24;21766,000; 1002,000;    0,000
 445,53;22591,000;  837,000;    0,000
 445,82;23005,000; 1072,000;    0,000
 446,10;23093,000;  884,000;    0,000
 446,39;23559,000;  670,000;    0,000
 446,67;23973,000;  810,000;    0,000
 446,96;23954,000;  727,000;    0,000
 447,24;24398,000;  677,000;    0,000
 447,53;24861,000;  749,000;    0,000
 447,81;24641,000;  766,000;    0,000
 448,10;25933,000;  990,000;    0,000
 448,38;25003,000;  573,000;    0,000
 448,67;26021,000; 1209,000;    0,000
 448,95;25644,000; 1076,000;    0,000
 449,24;25999,000; 1090,000;    0,000
 449,53;26254,000;  990,000;    0,000
 449,81;26130,000;  561,000;    0,000
 450,10;26426,000;  480,000;    0,000
 450,38;26968,000;  743,000;    0,000
 450,67;27745,000; 1212,000;    0,000
 450,95;27701,000;  890,000;    0,000
 451,24;28107,000;  478,000;    0,000
 451,52;28555,000;  717,000;    0,000
 451,81;29210,000;  999,000;    0,000
 452,09;29157,000; 1007,000;    0,000
 452,38;29460,000; 1098,000;    0,000
 452,66;29456,000;  852,000;    0,000
 452,95;29157,000;  938,000;    0,000
 453,23;30567,000; 1266,000;    0,000
 453,52;30520,000; 1055,000;    0,000
 453,80;30456,000; 1298,000;    0,000
 454,08;31128,000; 1019,000;    0,000
 454,37;30845,000;  832,000;    0,000
 454,65;31375,000;  906,000;    0,000
 454,94;32012,000; 1042,000;    0,000
 455,22;32028,000;  650,000;    0,000
 455,51;32128,000;  664,000;    0,000
 455,79;33206,000; 1497,000;    0,000
 456,08;33260,000; 1360,000;    0,000
 456,36;33016,000; 1266,000;    0,000
 456,65;33680,000; 1088,000;    0,000
 456,93;33756,000;  871,000;    0,000
 457,22;33485,000;  715,000;    0,000
 457,50;34576,000;  671,000;    0,000
 457,79;34214,000;  772,000;    0,000
 458,07;34862,000; 1381,000;    0,000
 458,35;34642,000;  832,000;    0,000
 458,64;34658,000;  905,000;    0,000
 458,92;36136,000; 1508,000;    0,000
 459,21;35033,000;  919,000;    0,000
 459,49;35929,000;  909,000;    0,000
 459,78;35959,000;  975,000;    0,000
 460,06;36605,000;  921,000;    0,000
 460,34;36390,000;  777,000;    0,000
 460,63;36471,000;  756,000;    0,000
 460,91;37736,000;  756,000;    0,000
 461,20;38042,000;  910,000;    0,000
 461,48;38368,000; 1030,000;    0,000
 461,77;38791,000;  895,000;    0,000
 462,05;38641,000;  991,000;    0,000
 462,33;39594,000; 1043,000;    0,000
 462,62;39451,000; 1186,000;    0,000
 462,90;40584,000;  886,000;    0,000
 463,19;40007,000; 1247,000;    0,000
 463,47;39711,000;  992,000;    0,000
 463,75;40251,000; 1375,000;    0,000
 464,04;40904,000; 1000,000;    0,000
 464,32;40598,000;  832,000;    0,000
 464,61;41568,000; 1248,000;    0,000
 464,89;41739,000; 1101,000;    0,000
 465,17;42052,000; 1514,000;    0,000
 465,46;42128,000; 1159,000;    0,000
 465,74;42377,000;  683,000;    0,000
 466,03;42176,000;  963,000;    0,000
 466,31;42252,000;  833,000;    0,000
 466,59;42950,000; 1150,000;    0,000
 466,88;42644,000;  912,000;    0,000
 467,16;44052,000; 1179,000;    0,000
 467,44;43802,000;  988,000;    0,000
 467,73;43730,000;  798,000;    0,000
 468,01;44173,000; 1138,000;    0,000
 468,30;44244,000; 1189,000;    0,000
 468,58;44676,000; 1308,000;    0,000
 468,86;44169,000;  815,000;    0,000
 469,15;44725,000; 1082,000;    0,000
 469,43;44666,000;  674,000;    0,000
 469,71;44968,000; 1095,000;    0,000
 470,00;45200,000;  781,000;    0,000
 470,28;45099,000;  800,000;    0,000
 470,56;45232,000; 1276,000;    0,000
 470,85;45407,000; 1232,000;    0,000
 471,13;45536,000;  777,000;    0,000
 471,41;45388,000;  791,000;    0,000
 471,70;46107,000; 1107,000;    0,000
 471,98;46258,000; 1945,000;    0,000
 472,26;45599,000; 1105,000;    0,000
 472,55;45914,000;  649,000;    0,000
 472,83;45594,000;  919,000;    0,000
 473,11;45610,000; 1236,000;    0,000
 473,40;45867,000; 1188,000;    0,000
 473,68;46082,000; 1407,000;    0,000
 473,96;45833,000; 1298,000;    0,000
 474,25;46579,000;  930,000;    0,000
 474,53;46209,000;  845,000;    0,000
 474,81;45300,000; 1171,000;    0,000
 475,10;45221,000; 1097,000;    0,000
 475,38;45943,000; 1476,000;    0,000
 475,66;45397,000; 1098,000;    0,000
 475,94;45909,000; 1195,000;    0,000
 476,23;46148,000; 1903,000;    0,000
 476,51;45943,000; 1219,000;    0,000
 476,79;45519,000;  937,000;    0,000
 477,08;45465,000; 1346,000;    0,000
 477,36;45474,000; 1097,000;    0,000
 477,64;45302,000; 1162,000;    0,000
 477,92;44897,000; 1203,000;    0,000
 478,21;43632,000;  647,000;    0,000
 478,49;45336,000; 1564,000;    0,000
 478,77;44437,000;  985,000;    0,000
 479,06;43743,000; 1000,000;    0,000
 479,34;44261,000;  918,000;    0,000
 479,62;43090,000; 1015,000;    0,000
 479,90;43598,000; 1047,000;    0,000
 480,19;43488,000; 1490,000;    0,000
 480,47;43224,000; 1039,000;    0,000
 480,75;42648,000;  984,000;    0,000
 481,03;42989,000; 1256,000;    0,000
 481,32;42743,000; 1199,000;    0,000
 481,60;42090,000; 1018,000;    0,000
 481,88;42150,000; 1195,000;    0,000
 482,16;41540,000;  869,000;    0,000
 482,45;41426,000;  675,000;    0,000
 482,73;40698,000; 1188,000;    0,000
 483,01;41159,000; 1472,000;    0,000
 483,29;40503,000; 1062,000;    0,000
 483,58;40800,000; 1904,000;    0,000
 483,86;39901,000; 1244,000;    0,000
 484,14;39749,000; 1077,000;    0,000
 484,42;39216,000; 1037,000;    0,000
 484,71;39149,000; 1262,000;    0,000
 484,99;37720,000; 1169,000;    0,000
 485,27;37204,000;  885,000;    0,000
 485,55;37211,000; 1219,000;    0,000
 485,83;36650,000; 1028,000;    0,000
 486,12;36873,000; 1034,000;    0,000
 486,40;36200,000; 1328,000;    0,000
 486,68;36108,000; 1407,000;    0,000
 486,96;35005,000;  969,000;    0,000
 487,24;34959,000;  967,000;    0,000
 487,53;34032,000;  886,000;    0,000
 487,81;34008,000; 1263,000;    0,000
 488,09;33726,000; 1023,000;    0,000
 488,37;33987,000; 1573,000;    0,000
 488,65;33415,000; 1241,000;    0,000
 488,94;32694,000; 1244,000;    0,000
 489,22;31768,000; 1003,000;    0,000
 489,50;31375,000; 1590,000;    0,000
 489,78;30701,000; 1072,000;    0,000
 490,06;30678,000; 1185,000;    0,000
 490,34;30263,000;  807,000;    0,000
 490,63;30034,000; 1068,000;    0,000
 490,91;29009,000;  798,000;    0,000
 491,19;29141,000; 1047,000;    0,000
 491,47;28479,000; 1022,000;    0,000
 491,75;28118,000; 1108,000;    0,000
 492,04;27993,000; 1019,000;    0,000
 492,32;27675,000; 1572,000;    0,000
 492,60;26786,000; 1277,000;    0,000
 492,88;26704,000;  546,000;    0,000
 493,16;26153,000; 1183,000;    0,000
 493,44;25961,000; 1190,000;    0,000
 493,72;25339,000; 1215,000;    0,000
 494,01;25765,000; 1253,000;    0,000
 494,29;23904,000;  670,000;    0,000
 494,57;23453,000;  978,000;    0,000
 494,85;23872,000; 1096,000;    0,000
 495,13;23654,000; 1000,000;    0,000
 495,41;23630,000; 1100,000;    0,000
 495,69;22932,000;  984,000;    0,000
 495,98;22464,000; 1656,000;    0,000
 496,26;22344,000; 1577,000;    0,000
 496,54;21497,000;  881,000;    0,000
 496,82;20923,000; 1181,000;    0,000
 497,10;20956,000;  793,000;    0,000
 497,38;20706,000; 1119,000;    0,000
 497,66;20054,000;  570,000;    0,000
 497,94;20003,000;  979,000;    0,000
 498,22;19241,000; 1214,000;    0,000
 498,51;18960,000;  931,000;    0,000
 498,79;18887,000; 1581,000;    0,000
 499,07;18473,000;  894,000;    0,000
 499,35;17695,000;  727,000;    0,000
 499,63;17769,000;  880,000;    0,000
 499,91;17316,000; 1169,000;    0,000
 500,19;17344,000; 1241,000;    0,000
 500,47;16496,000;  728,000;    0,000
 500,75;16546,000; 1050,000;    0,000
 501,03;16456,000; 1307,000;    0,000
 501,31;16048,000; 1267,000;    0,000
 501,60;15950,000; 1486,000;    0,000
 501,88;15194,000;  881,000;    0,000
 502,16;15521,000; 1204,000;    0,000
 502,44;15260,000; 1392,000;    0,000
 502,72;14550,000; 1057,000;    0,000
 503,00;14189,000; 1416,000;    0,000
 503,28;13987,000;  914,000;    0,000
 503,56;13731,000;  821,000;    0,000
 503,84;13464,000; 1049,000;    0,000
 504,12;13533,000; 1353,000;    0,000
 504,40;13060,000; 1011,000;    0,000
 504,68;12660,000;  800,000;    0,000
 504,96;12913,000;  796,000;    0,000
 505,24;13160,000; 1769,000;    0,000
 505,52;12440,000; 1142,000;    0,000
 505,80;12422,000; 1290,000;    0,000
 506,08;11656,000; 1035,000;    0,000
 506,36;11943,000; 1397,000;    0,000
 506,65;11284,000; 1388,000;    0,000
 506,93;11948,000; 1568,000;    0,000
 507,21;11031,000; 1160,000;    0,000
 507,49;10934,000; 1362,000;    0,000
 507,77;10775,000; 1248,000;    0,000
 508,05;10908,000; 1345,000;    0,000
 508,33;10490,000; 1441,000;    0,000
 508,61;10560,000; 1199,000;    0,000
 508,89;10263,000; 1634,000;    0,000
 509,17; 9808,000; 1345,000;    0,000
 509,45; 9832,000; 1494,000;    0,000
 509,73; 9295,000; 1355,000;    0,000
 510,01; 9816,000; 1561,000;    0,000
 510,29; 9826,000; 1762,000;    0,000
 510,57; 9378,000; 1536,000;    0,000
 510,85; 9558,000; 1862,000;    0,000
 511,13; 8957,000; 1795,000;    0,000
 511,41; 9186,000; 1925,000;    0,000
 511,69; 8891,000; 2082,000;    0,000
 511,97; 9135,000; 2019,000;    0,000
 512,25; 8911,000; 2184,000;    0,000
 512,53; 7953,000; 1794,000;    0,000
 512,81; 8689,000; 2290,000;    0,000
 513,09; 8686,000; 2336,000;    0,000
 513,37; 7657,000; 1747,000;    0,000
 513,65; 8648,000; 2511,000;    0,000
 513,93; 8056,000; 2228,000;    0,000
 514,21; 8075,000; 2416,000;    0,000
 514,48; 7595,000; 2059,000;    0,000
 514,76; 7883,000; 2942,000;    0,000
 515,04; 7608,000; 2545,000;    0,000
 515,32; 8172,000; 3095,000;    0,000
 515,60; 7235,000; 2559,000;    0,000
 515,88; 7616,000; 3136,000;    0,000
 516,16; 6991,000; 2606,000;    0,000
 516,44; 7596,000; 3081,000;    0,000
 516,72; 7132,000; 3141,000;    0,000
 517,00; 7676,000; 3828,000;    0,000
 517,28; 6980,000; 3197,000;    0,000
 517,56; 7298,000; 3820,000;    0,000
 517,84; 6850,000; 3676,000;    0,000
 518,12; 6602,000; 3803,000;    0,000
 518,40; 6530,000; 3627,000;    0,000
 518,68; 6882,000; 3749,000;    0,000
 518,96; 6815,000; 3771,000;    0,000
 519,23; 6857,000; 4397,000;    0,000
 519,51; 6725,000; 4469,000;    0,000
 519,79; 6669,000; 4456,000;    0,000
 520,07; 7341,000; 5776,000;    0,000
 520,35; 6670,000; 4760,000;    0,000
 520,63; 6556,000; 5546,000;    0,000
 520,91; 6925,000; 5251,000;    0,000
 521,19; 6354,000; 5085,000;    0,000
 521,47; 6535,000; 5583,000;    0,000
 521,75; 6009,000; 5677,000;    0,000
 522,03; 6710,000; 5938,000;    0,000
 522,30; 6404,000; 6007,000;    0,000
 522,58; 6427,000; 5977,000;    0,000
 522,86; 5731,000; 6549,000;    0,000
 523,14; 6339,000; 6339,000;    0,000
 523,42; 6079,000; 6334,000;    0,000
 523,70; 6192,000; 6814,000;    0,000
 523,98; 6221,000; 7436,000;    0,000
 524,26; 6248,000; 7677,000;    0,000
 524,54; 6551,000; 8267,000;    0,000
 524,81; 6378,000; 8256,000;    0,000
 525,09; 5754,000; 8178,000;    0,000
 525,37; 5713,000; 7717,000;    0,000
 525,65; 5812,000; 8142,000;    0,000
 525,93; 6258,000; 8888,000;    0,000
 526,21; 5941,000; 8987,000;    0,000
 526,49; 5855,000; 9278,000;    0,000
 526,76; 5420,000; 9214,000;    0,000
 527,04; 5392,000; 9938,000;    0,000
 527,32; 5511,000; 9701,000;    0,000
 527,60; 5809,000;10536,000;    0,000
 527,88; 5537,000;10248,000;    0,000
 528,16; 5930,000;10856,000;    0,000
 528,44; 5666,000;11050,000;    0,000
 528,71; 6138,000;11907,000;    0,000
 528,99; 5722,000;11363,000;    0,000
 529,27; 5401,000;11647,000;    0,000
 529,55; 5537,000;12481,000;    0,000
 529,83; 6043,000;12964,000;    0,000
 530,11; 5643,000;13649,000;    0,000
 530,38; 5459,000;13582,000;    0,000
 530,66; 5408,000;13373,000;    0,000
 530,94; 5459,000;13937,000;    0,000
 531,22; 6057,000;14921,000;    0,000
 531,50; 5982,000;15401,000;    0,000
 531,77; 5521,000;15630,000;    0,000
 532,05; 5610,000;15619,000;    0,000
 532,33; 5281,000;15592,000;    0,000
 532,61; 5561,000;15765,000;    0,000
 532,89; 5825,000;17278,000;    0,000
 533,16; 5877,000;17114,000;    0,000
 533,44; 5773,000;17187,000;    0,000
 533,72; 5667,000;18127,000;    0,000
 534,00; 5458,000;18238,000;    0,000
 534,28; 5421,000;18714,000;    0,000
 534,55; 5334,000;18950,000;    0,000
 534,83; 5719,000;19930,000;    0,000
 535,11; 6023,000;20731,000;    0,000
 535,39; 5513,000;21072,000;    0,000
 535,66; 5196,000;21072,000;    0,000
 535,94; 5615,000;21364,000;    0,000
 536,22; 5343,000;21940,000;    0,000
 536,50; 5610,000;22480,000;    0,000
 536,78; 5534,000;22709,000;    0,000
 537,05; 6080,000;23687,000;    0,000
 537,33; 5563,000;23579,000;    0,000
 537,61; 5708,000;24523,000;    0,000
 537,89; 5607,000;25001,000;    0,000
 538,16; 5695,000;25281,000;    0,000
 538,44; 5724,000;25983,000;    0,000
 538,72; 5804,000;27302,000;    0,000
 539,00; 5812,000;26819,000;    0,000
 539,27; 5740,000;28171,000;    0,000
 539,55; 5793,000;28236,000;    0,000
 539,83; 5670,000;29092,000;    0,000
 540,11; 5514,000;28720,000;    0,000
 540,38; 6524,000;30618,000;    0,000
 540,66; 6364,000;31415,000;    0,000
 540,94; 5919,000;30709,000;    0,000
 541,21; 5991,000;31581,000;    0,000
 541,49; 5809,000;31463,000;    0,000
 541,77; 6146,000;32646,000;    0,000
 542,05; 6080,000;33736,000;    0,000
 542,32; 5739,000;34120,000;    0,000
 542,60; 6336,000;35301,000;    0,000
 542,88; 6088,000;35213,000;    0,000
 543,15; 6339,000;35794,000;    0,000
 543,43; 5958,000;36443,000;    0,000
 543,71; 6312,000;37173,000;    0,000
 543,98; 6056,000;37700,000;    0,000
 544,26; 6104,000;38589,000;    0,000
 544,54; 6491,000;39366,000;    0,000
 544,82; 6415,000;39588,000;    0,000
 545,09; 6022,000;40032,000;    0,000
 545,37; 6110,000;40831,000;    0,000
 545,65; 6150,000;41062,000;    0,000
 545,92; 6024,000;41476,000;    0,000
 546,20; 5701,000;41717,000;    0,000
 546,48; 6257,000;42987,000;    0,000
 546,75; 6513,000;43555,000;    0,000
 547,03; 5947,000;43568,000;    0,000
 547,31; 6284,000;44163,000;    0,000
 547,58; 6127,000;44851,000;    0,000
 547,86; 5956,000;45553,000;    0,000
 548,14; 6351,000;46050,000;    0,000
 548,41; 5647,000;47173,000;    0,000
 548,69; 6172,000;47310,000;    0,000
 548,97; 5743,000;47961,000;    0,000
 549,24; 5780,000;48039,000;    0,000
 549,52; 6473,000;49120,000;    0,000
 549,80; 5926,000;49063,000;    0,000
 550,07; 5854,000;49890,000;    0,000
 550,35; 5724,000;49777,000;    0,000
 550,62; 5720,000;50421,000;    0,000
 550,90; 6113,000;51281,000;    0,000
 551,18; 5653,000;51315,000;    0,000
 551,45; 6197,000;52820,000;    0,000
 551,73; 5492,000;52194,000;    0,000
 552,01; 5800,000;53145,000;    0,000
 552,28; 5632,000;53432,000;    0,000
 552,56; 5665,000;53936,000;    0,000
 552,83; 5154,000;53919,000;    0,000
 553,11; 5858,000;54790,000;    0,000
 553,39; 6868,000;56254,000;    0,000
 553,66; 6094,000;55547,000;    0,000
 553,94; 5766,000;54985,000;    0,000
 554,22; 6061,000;56210,000;    0,000
 554,49; 5385,000;55416,000;    0,000
 554,77; 5822,000;56724,000;    0,000
 555,04; 5585,000;56291,000;    0,000
 555,32; 5227,000;56725,000;    0,000
 555,59; 5638,000;57306,000;    0,000
 555,87; 6113,000;57517,000;    0,000
 556,15; 5633,000;57863,000;    0,000
 556,42; 5801,000;57232,000;    0,000
 556,70; 5261,000;57520,000;    0,000
 556,97; 5281,000;57942,000;    0,000
 557,25; 5450,000;57428,000;    0,000
 557,53; 5643,000;58122,000;    0,000
 557,80; 5184,000;57741,000;    0,000
 558,08; 5549,000;58813,000;    0,000
 558,35; 5420,000;58584,000;    0,000
 558,63; 5703,000;58539,000;    0,000
 558,90; 5613,000;58924,000;    0,000
 559,18; 5992,000;58423,000;    0,000
 559,45; 5648,000;58098,000;    0,000
 559,73; 5530,000;58663,000;    0,000
 560,01; 5615,000;59019,000;    0,000
 560,28; 5535,000;58261,000;    0,000
 560,56; 4956,000;59041,000;    0,000
 560,83; 5866,000;58234,000;    0,000
 561,11; 5449,000;58589,000;    0,000
 561,38; 5382,000;58484,000;    0,000
 561,66; 5571,000;58334,000;    0,000
 561,93; 5628,000;57989,000;    0,000
 562,21; 5035,000;57480,000;    0,000
 562,48; 5681,000;58567,000;    0,000
 562,76; 5709,000;58147,000;    0,000
 563,03; 5536,000;57790,000;    0,000
 563,31; 6042,000;58248,000;    0,000
 563,58; 5686,000;57371,000;    0,000
 563,86; 5536,000;56991,000;    0,000
 564,13; 5553,000;57768,000;    0,000
 564,41; 5390,000;56078,000;    0,000
 564,68; 5417,000;55889,000;    0,000
 564,96; 5521,000;55503,000;    0,000
 565,23; 5714,000;56270,000;    0,000
 565,51; 5702,000;54991,000;    0,000
 565,78; 5819,000;55314,000;    0,000
 566,06; 5268,000;54666,000;    0,000
 566,33; 5905,000;55070,000;    0,000
 566,61; 5945,000;54876,000;    0,000
 566,88; 5621,000;54222,000;    0,000
 567,16; 6075,000;53574,000;    0,000
 567,43; 5756,000;53802,000;    0,000
 567,71; 5422,000;52192,000;    0,000
 567,98; 5397,000;52451,000;    0,000
 568,26; 5542,000;51768,000;    0,000
 568,53; 5694,000;51500,000;    0,000
 568,81; 5286,000;51300,000;    0,000
 569,08; 5259,000;49963,000;    0,000
 569,36; 4966,000;49381,000;    0,000
 569,63; 4931,000;49107,000;    0,000
 569,91; 4967,000;48993,000;    0,000
 570,18; 5613,000;48793,000;    0,000
 570,45; 5027,000;48175,000;    0,000
 570,73; 5327,000;47853,000;    0,000
 571,00; 5437,000;46915,000;    0,000
 571,28; 5270,000;46313,000;    0,000
 571,55; 5718,000;47116,000;    0,000
 571,83; 5398,000;46390,000;    0,000
 572,10; 5269,000;45600,000;    0,000
 572,38; 5533,000;45434,000;    0,000
 572,65; 5027,000;44038,000;    0,000
 572,92; 5359,000;43897,000;    0,000
 573,20; 5503,000;43456,000;    0,000
 573,47; 5273,000;42643,000;    0,000
 573,75; 5286,000;41350,000;    0,000
 574,02; 5686,000;41856,000;    0,000
 574,29; 5629,000;41610,000;    0,000
 574,57; 5310,000;39789,000;    0,000
 574,84; 5674,000;40617,000;    0,000
 575,12; 5547,000;39762,000;    0,000
 575,39; 5471,000;39221,000;    0,000
 575,66; 5475,000;38302,000;    0,000
 575,94; 5517,000;38208,000;    0,000
 576,21; 5381,000;36707,000;    0,000
 576,49; 5589,000;37170,000;    0,000
 576,76; 5592,000;36167,000;    0,000
 577,03; 4817,000;35080,000;    0,000
 577,31; 5425,000;35565,000;    0,000
 577,58; 5312,000;34755,000;    0,000
 577,86; 5699,000;34410,000;    0,000
 578,13; 5180,000;33671,000;    0,000
 578,40; 5549,000;34099,000;    0,000
 578,68; 4958,000;32372,000;    0,000
 578,95; 5842,000;32100,000;    0,000
 579,22; 5987,000;32474,000;    0,000
 579,50; 5286,000;30908,000;    0,000
 579,77; 4776,000;30321,000;    0,000
 580,05; 5269,000;30637,000;    0,000
 580,32; 5213,000;29683,000;    0,000
 580,59; 5438,000;29998,000;    0,000
 580,87; 5335,000;28549,000;    0,000
 581,14; 5218,000;28457,000;    0,000
 581,41; 5354,000;27574,000;    0,000
 581,69; 5263,000;27204,000;    0,000
 581,96; 5155,000;27366,000;    0,000
 582,23; 5490,000;26801,000;    0,000
 582,51; 5039,000;26236,000;    0,000
 582,78; 6085,000;26658,000;    0,000
 583,05; 4745,000;24697,000;    0,000
 583,33; 5024,000;24742,000;    0,000
 583,60; 5247,000;23914,000;    0,000
 583,87; 5610,000;23819,000;    0,000
 584,15; 5604,000;24000,000;    0,000
 584,42; 5475,000;22679,000;    0,000
 584,69; 5584,000;23158,000;    0,000
 584,96; 4948,000;21252,000;    0,000
 585,24; 5083,000;21659,000;    0,000
 585,51; 5226,000;20901,000;    0,000
 585,78; 4633,000;20193,000;    0,000
 586,06; 5342,000;20858,000;    0,000
 586,33; 5060,000;20471,000;    0,000
 586,60; 5056,000;19536,000;    0,000
 586,88; 4823,000;19434,000;    0,000
 587,15; 4863,000;19385,000;    0,000
 587,42; 4995,000;18312,000;    0,000
 587,69; 5016,000;18042,000;    0,000
 587,97; 5410,000;18361,000;    0,000
 588,24; 5558,000;18130,000;    0,000
 588,51; 5005,000;17276,000;    0,000
 588,79; 5474,000;17153,000;    0,000
 589,06; 5472,000;16922,000;    0,000
 589,33; 4815,000;16123,000;    0,000
 589,60; 4783,000;16020,000;    0,000
 589,88; 4963,000;16053,000;    0,000
 590,15; 5227,000;16054,000;    0,000
 590,42; 4804,000;15120,000;    0,000
 590,69; 4757,000;14831,000;    0,000
 590,97; 5158,000;14593,000;    0,000
 591,24; 4657,000;13726,000;    0,000
 591,51; 4948,000;13986,000;    0,000
 591,78; 5206,000;13757,000;    0,000
 592,06; 4897,000;13626,000;    0,000
 592,33; 4625,000;12484,000;    0,000
 592,60; 4929,000;13090,000;    0,000
 592,87; 4326,000;11836,000;    0,000
 593,15; 4853,000;12677,000;    0,000
 593,42; 5272,000;12896,000;    0,000
 593,69; 4731,000;12169,000;    0,000
 593,96; 4720,000;11386,000;    0,000
 594,23; 5293,000;12067,000;    0,000
 594,51; 4070,000;10434,000;    0,000
 594,78; 4654,000;11027,000;    0,000
 595,05; 4253,000;10304,000;    0,000
 595,32; 4586,000;10810,000;    0,000
 595,59; 4290,000;10055,000;    0,000
 595,87; 4349,000; 9682,000;    0,000
 596,14; 3993,000; 9587,000;    0,000
 596,41; 4487,000; 9953,000;    0,000
 596,68; 4075,000; 8896,000;    0,000
 596,95; 4621,000; 9110,000;    0,000
 597,23; 4078,000; 8842,000;    0,000
 597,50; 4441,000; 8770,000;    0,000
 597,77; 4787,000; 9422,000;    0,000
 598,04; 4276,000; 8385,000;    0,000
 598,31; 5042,000; 8634,000;    0,000
 598,59; 4609,000; 8264,000;    0,000
 598,86; 4534,000; 8246,000;    0,000
 599,13; 3984,000; 7076,000;    0,000
 599,40; 4504,000; 8034,000;    0,000
 599,67; 4283,000; 7332,000;    0,000
 599,94; 4080,000; 6949,000;    0,000
 600,22; 4435,000; 7394,000;    0,000
 600,49; 4248,000; 6533,000;    0,000
 600,76; 4052,000; 6472,000;    0,000
 601,03; 4001,000; 6293,000;    0,000
 601,30; 4134,000; 6445,000;    0,000
 601,57; 4211,000; 6366,000;    0,000
 601,84; 4528,000; 7195,000;    0,000
 602,12; 4244,000; 5817,000;    0,000
 602,39; 4315,000; 6101,000;    0,000
 602,66; 4591,000; 6090,000;    0,000
 602,93; 4452,000; 5922,000;    0,000
 603,20; 4200,000; 5601,000;    0,000
 603,47; 4150,000; 5407,000;    0,000
 603,74; 4019,000; 5064,000;    0,000
 604,02; 4276,000; 5534,000;    0,000
 604,29; 4022,000; 5308,000;    0,000
 604,56; 3702,000; 4531,000;    0,000
 604,83; 3813,000; 4773,000;    0,000
 605,10; 4376,000; 4687,000;    0,000
 605,37; 3908,000; 4610,000;    0,000
 605,64; 4291,000; 4767,000;    0,000
 605,91; 3971,000; 4597,000;    0,000
 606,18; 3749,000; 4053,000;    0,000
 606,45; 3670,000; 3789,000;    0,000
 606,73; 4142,000; 4230,000;    0,000
 607,00; 3707,000; 3867,000;    0,000
 607,27; 3812,000; 3567,000;    0,000
 607,54; 4244,000; 3926,000;    0,000
 607,81; 4437,000; 4069,000;    0,000
 608,08; 3937,000; 3474,000;    0,000
 608,35; 4160,000; 3754,000;    0,000
 608,62; 3908,000; 3243,000;    0,000
 608,89; 4214,000; 3472,000;    0,000
 609,16; 4362,000; 3722,000;    0,000
 609,43; 4717,000; 4008,000;    0,000
 609,70; 4384,000; 3498,000;    0,000
 609,97; 3946,000; 2796,000;    0,000
 610,25; 3907,000; 3105,000;    0,000
 610,52; 3921,000; 2654,000;    0,000
 610,79; 3622,000; 2499,000;    0,000
 611,06; 4056,000; 2850,000;    0,000
 611,33; 3865,000; 2639,000;    0,000
 611,60; 4122,000; 3033,000;    0,000
 611,87; 3716,000; 2552,000;    0,000
 612,14; 4183,000; 2518,000;    0,000
 612,41; 3800,000; 2304,000;    0,000
 612,68; 3709,000; 2528,000;    0,000
 612,95; 3475,000; 2372,000;    0,000
 613,22; 4420,000; 2973,000;    0,000
 613,49; 3485,000; 2096,000;    0,000
 613,76; 4134,000; 2197,000;    0,000
 614,03; 3614,000; 1919,000;    0,000
 614,30; 4194,000; 2609,000;    0,000
 614,57; 3432,000; 2096,000;    0,000
 614,84; 3971,000; 2063,000;    0,000
 615,11; 3805,000; 2084,000;    0,000
 615,38; 4051,000; 2004,000;    0,000
 615,65; 3753,000; 2186,000;    0,000
 615,92; 3926,000; 1951,000;    0,000
 616,19; 3479,000; 2017,000;    0,000
 616,46; 3711,000; 1909,000;    0,000
 616,73; 3843,000; 2099,000;    0,000
 617,00; 3987,000; 2336,000;    0,000
 617,27; 3873,000; 2001,000;    0,000
 617,54; 3786,000; 2021,000;    0,000
 617,81; 3175,000; 1678,000;    0,000
 618,08; 3634,000; 1770,000;    0,000
 618,35; 3433,000; 1531,000;    0,000
 618,62; 3775,000; 2073,000;    0,000
 618,89; 3425,000; 1594,000;    0,000
 619,16; 3182,000; 1172,000;    0,000
 619,43; 3557,000; 1380,000;    0,000
 619,70; 3289,000; 1268,000;    0,000
 619,97; 3501,000; 1776,000;    0,000
 620,24; 4075,000; 2004,000;    0,000
 620,51; 3413,000; 1163,000;    0,000
 620,78; 3295,000; 1283,000;    0,000
 621,05; 3440,000; 1443,000;    0,000
 621,32; 3685,000; 1453,000;    0,000
 621,59; 3275,000; 1243,000;    0,000
 621,86; 4211,000; 1914,000;    0,000
 622,12; 4085,000; 1961,000;    0,000
 622,39; 3850,000; 1446,000;    0,000
 622,66; 3318,000; 1118,000;    0,000
 622,93; 3336,000;  870,000;    0,000
 623,20; 3163,000;  946,000;    0,000
 623,47; 3181,000;  905,000;    0,000
 623,74; 3649,000; 1014,000;    0,000
 624,01; 3263,000;  852,000;    0,000
 624,28; 3384,000; 1048,000;    0,000
 624,55; 3404,000;  806,000;    0,000
 624,82; 3332,000;  956,000;    0,000
 625,09; 3399,000;  988,000;    0,000
 625,36; 3295,000; 1091,000;    0,000
 625,62; 3572,000; 1283,000;    0,000
 625,89; 3080,000;  764,000;    0,000
 626,16; 3170,000;  833,000;    0,000
 626,43; 3245,000;  803,000;    0,000
 626,70; 3654,000; 1198,000;    0,000
 626,97; 3214,000;  847,000;    0,000
 627,24; 3396,000;  973,000;    0,000
 627,51; 2777,000;  442,000;    0,000
 627,78; 3193,000;  638,000;    0,000
 628,04; 3429,000; 1074,000;    0,000
 628,31; 3397,000;  742,000;    0,000
 628,58; 3548,000; 1304,000;    0,000
 628,85; 3089,000;  472,000;    0,000
 629,12; 3122,000;  904,000;    0,000
 629,39; 2933,000;  622,000;    0,000
 629,66; 3550,000; 1332,000;    0,000
 629,93; 3148,000;  831,000;    0,000
 630,19; 2880,000;  403,000;    0,000
 630,46; 2897,000;  525,000;    0,000
 630,73; 3114,000;  700,000;    0,000
 631,00; 3177,000;  693,000;    0,000
 631,27; 2880,000;  737,000;    0,000
 631,54; 3082,000;  414,000;    0,000
 631,80; 3062,000;  548,000;    0,000
 632,07; 2777,000;  401,000;    0,000
 632,34; 2654,000;  558,000;    0,000
 632,61; 3060,000;  543,000;    0,000
 632,88; 2855,000;  392,000;    0,000
 633,15; 2981,000;  565,000;    0,000
 633,41; 3048,000;  736,000;    0,000
 633,68; 2941,000;  626,000;    0,000
 633,95; 2766,000;  433,000;    0,000
 634,22; 2832,000;  353,000;    0,000
 634,49; 2604,000;  326,000;    0,000
 634,76; 3584,000; 1167,000;    0,000
 635,02; 2930,000;  446,000;    0,000
 635,29; 3095,000;  567,000;    0,000
 635,56; 3178,000;  464,000;    0,000
 635,83; 3196,000;  898,000;    0,000
 636,10; 2600,000;  233,000;    0,000
 636,36; 3193,000;  724,000;    0,000
 636,63; 2717,000;  301,000;    0,000
 636,90; 3175,000;  773,000;    0,000
 637,17; 3112,000;  230,000;    0,000
 637,43; 2858,000;  199,000;    0,000
 637,70; 3366,000; 1135,000;    0,000
 637,97; 3719,000; 1259,000;    0,000
 638,24; 3623,000;  972,000;    0,000
 638,51; 2832,000;  246,000;    0,000
 638,77; 3039,000;  531,000;    0,000
 639,04; 3385,000;  866,000;    0,000
 639,31; 3015,000;  393,000;    0,000
 639,58; 3046,000;  471,000;    0,000
 639,84; 3214,000;  582,000;    0,000
 640,11; 3078,000;  368,000;    0,000
 640,38; 3148,000;  368,000;    0,000
 640,65; 3444,000;  985,000;    0,000
 640,91; 3329,000;  609,000;    0,000
 641,18; 3389,000;  484,000;    0,000
 641,45; 3765,000;  993,000;    0,000
 641,72; 3492,000;  773,000;    0,000
 641,98; 3390,000;  528,000;    0,000
 642,25; 3401,000;  569,000;    0,000
 642,52; 3378,000;  531,000;    0,000
 642,78; 3117,000;  279,000;    0,000
 643,05; 3636,000;  602,000;    0,000
 643,32; 3919,000;  669,000;    0,000
 643,59; 2960,000;  244,000;    0,000
 643,85; 3637,000;  476,000;    0,000
 644,12; 3658,000;  653,000;    0,000
 644,39; 3464,000;  258,000;    0,000
 644,65; 3397,000;  538,000;    0,000
 644,92; 3502,000;  235,000;    0,000
 645,19; 3912,000;  519,000;    0,000
 645,46; 3893,000;  703,000;    0,000
 645,72; 3926,000;  644,000;    0,000
 645,99; 4057,000;  598,000;    0,000
 646,26; 3477,000;  113,000;    0,000
 646,52; 4252,000;  574,000;    0,000
 646,79; 3656,000;  217,000;    0,000
 647,06; 4179,000;  653,000;    0,000
 647,32; 4118,000;  466,000;    0,000
 647,59; 4833,000; 1007,000;    0,000
 647,86; 4806,000; 1024,000;    0,000
 648,12; 4328,000;  547,000;    0,000
 648,39; 4141,000;  604,000;    0,000
 648,66; 4409,000;  578,000;    0,000
 648,92; 4156,000;  237,000;    0,000
 649,19; 4835,000; 1025,000;    0,000
 649,46; 4336,000;  341,000;    0,000
 649,72; 4883,000; 1007,000;    0,000
 649,99; 4516,000;  402,000;    0,000
 650,26; 4702,000;  611,000;    0,000
 650,52; 4885,000;  806,000;    0,000
 650,79; 4914,000;  453,000;    0,000
 651,06; 4971,000;  849,000;    0,000
 651,32; 4708,000;  392,000;    0,000
 651,59; 4291,000;   85,000;    0,000
 651,85; 4911,000;  526,000;    0,000
 652,12; 4981,000;  424,000;    0,000
 652,39; 5292,000;  519,000;    0,000
 652,65; 4848,000;  579,000;    0,000
 652,92; 5770,000;  967,000;    0,000
 653,19; 5729,000;  852,000;    0,000
 653,45; 5411,000;  677,000;    0,000
 653,72; 5568,000;  659,000;    0,000
 653,98; 5648,000;  756,000;    0,000
 654,25; 6389,000; 1337,000;    0,000
 654,52; 6221,000; 1223,000;    0,000
 654,78; 5895,000; 1032,000;    0,000
 655,05; 6310,000; 1120,000;    0,000
 655,31; 6108,000; 1275,000;    0,000
 655,58; 6149,000;  761,000;    0,000
 655,85; 5694,000;  681,000;    0,000
 656,11; 6332,000;  613,000;    0,000
 656,38; 6359,000;  611,000;    0,000
 656,64; 6140,000;  542,000;    0,000
 656,91; 7050,000; 1120,000;    0,000
 657,18; 6497,000;  571,000;    0,000
 657,44; 6390,000;  482,000;    0,000
 657,71; 6344,000;  432,000;    0,000
 657,97; 6362,000;  608,000;    0,000
 658,24; 7255,000; 1125,000;    0,000
 658,50; 7070,000;  853,000;    0,000
 658,77; 7095,000; 1054,000;    0,000
 659,03; 7262,000;  777,000;    0,000
 659,30; 7897,000; 1209,000;    0,000
 659,57; 7009,000;  562,000;    0,000
 659,83; 7365,000;  573,000;    0,000
 660,10; 7771,000;  994,000;    0,000
 660,36; 7711,000;  747,000;    0,000
 660,63; 7432,000;  836,000;    0,000
 660,89; 7507,000;  582,000;    0,000
 661,16; 7560,000;  894,000;    0,000
 661,42; 8170,000; 1012,000;    0,000
 661,69; 8127,000;  841,000;    0,000
 661,95; 8002,000;  733,000;    0,000
 662,22; 8111,000;  612,000;    0,000
 662,48; 8676,000; 1048,000;    0,000
 662,75; 8269,000;  855,000;    0,000
 663,01; 8782,000; 1107,000;    0,000
 663,28; 8729,000;  972,000;    0,000
 663,54; 9084,000; 1025,000;    0,000
 663,81; 9074,000; 1005,000;    0,000
 664,07; 9331,000; 1194,000;    0,000
 664,34; 9805,000; 1365,000;    0,000
 664,60;11015,000; 3039,000;    0,000
 664,87; 8716,000;  894,000;    0,000
 665,13; 9577,000; 1071,000;    0,000
 665,40; 9703,000;  944,000;    0,000
 665,66; 9197,000;  763,000;    0,000
 665,93; 9435,000;  933,000;    0,000
 666,19;10798,000; 1824,000;    0,000
 666,46;10088,000; 1375,000;    0,000
 666,72;10212,000; 1385,000;    0,000
 666,99; 9378,000;  655,000;    0,000
 667,25;10244,000; 1129,000;    0,000
 667,52;10189,000; 1091,000;    0,000
 667,78; 9904,000;  762,000;    0,000
 668,05;10446,000; 1344,000;    0,000
 668,31;10787,000; 1198,000;    0,000
 668,57;10680,000; 1416,000;    0,000
 668,84;11325,000; 1686,000;    0,000
 669,10;10822,000; 1348,000;    0,000
 669,37;10917,000; 1169,000;    0,000
 669,63;10623,000; 1048,000;    0,000
 669,90;10818,000;  943,000;    0,000
 670,16;11370,000; 1442,000;    0,000
 670,43;11671,000; 1157,000;    0,000
 670,69;11394,000; 1800,000;    0,000
 670,95;11372,000;  993,000;    0,000
 671,22;11521,000; 1113,000;    0,000
 671,48;11755,000; 1256,000;    0,000
 671,75;12099,000; 1396,000;    0,000
 672,01;11597,000; 1173,000;    0,000
 672,28;11644,000; 1042,000;    0,000
 672,54;12147,000; 1051,000;    0,000
 672,80;12219,000; 1603,000;    0,000
 673,07;12194,000; 1241,000;    0,000
 673,33;11914,000; 1100,000;    0,000
 673,60;12204,000; 1222,000;    0,000
 673,86;12725,000; 1331,000;    0,000
 674,12;12438,000; 1454,000;    0,000
 674,39;12699,000; 1786,000;    0,000
 674,65;12769,000; 1363,000;    0,000
 674,91;12796,000; 1258,000;    0,000
 675,18;12927,000; 1120,000;    0,000
 675,44;13071,000; 1654,000;    0,000
 675,71;12838,000; 1314,000;    0,000
 675,97;12834,000; 1213,000;    0,000
 676,23;13304,000; 1344,000;    0,000
 676,50;12895,000; 1081,000;    0,000
 676,76;13384,000; 1286,000;    0,000
 677,02;12663,000;  986,000;    0,000
 677,29;13755,000; 1389,000;    0,000
 677,55;13156,000; 1243,000;    0,000
 677,81;13652,000; 1367,000;    0,000
 678,08;13514,000; 1174,000;    0,000
 678,34;14256,000; 1622,000;    0,000
 678,61;13863,000; 1064,000;    0,000
 678,87;14112,000; 1382,000;    0,000
 679,13;13792,000;  957,000;    0,000
 679,40;14039,000; 1342,000;    0,000
 679,66;14068,000; 1264,000;    0,000
 679,92;14018,000; 1195,000;    0,000
 680,18;14396,000; 1392,000;    0,000
 680,45;14452,000; 1463,000;    0,000
 680,71;14557,000; 1208,000;    0,000
 680,97;14380,000;  967,000;    0,000
 681,24;14215,000; 1171,000;    0,000
 681,50;15160,000; 2081,000;    0,000
 681,76;14724,000; 1433,000;    0,000
 682,03;14667,000; 1431,000;    0,000
 682,29;14578,000; 1003,000;    0,000
 682,55;15332,000; 1444,000;    0,000
 682,82;14988,000; 1362,000;    0,000
 683,08;15416,000; 1591,000;    0,000
 683,34;14839,000; 1237,000;    0,000
 683,60;15283,000; 1512,000;    0,000
 683,87;16012,000; 1557,000;    0,000
 684,13;15906,000; 1734,000;    0,000
 684,39;15496,000; 1433,000;    0,000
 684,66;16284,000; 1789,000;    0,000
 684,92;15943,000; 1443,000;    0,000
 685,18;16072,000; 1331,000;    0,000
 685,44;16347,000; 1762,000;    0,000
 685,71;16264,000; 1505,000;    0,000
 685,97;16122,000; 1726,000;    0,000
 686,23;16266,000; 1438,000;    0,000
 686,49;15996,000; 1381,000;    0,000
 686,76;16238,000; 1258,000;    0,000
 687,02;16308,000; 1354,000;    0,000
 687,28;16561,000; 1184,000;    0,000
 687,54;16575,000; 1316,000;    0,000
 687,81;16436,000; 1455,000;    0,000
 688,07;16513,000; 1284,000;    0,000
 688,33;16650,000; 1114,000;    0,000
 688,59;16834,000; 1583,000;    0,000
 688,86;17088,000; 1763,000;    0,000
 689,12;16728,000; 1357,000;    0,000
 689,38;16985,000; 1347,000;    0,000
 689,64;16619,000; 1388,000;    0,000
 689,90;17133,000; 1672,000;    0,000
 690,17;17338,000; 1853,000;    0,000
 690,43;16942,000; 1303,000;    0,000
 690,69;17322,000; 1241,000;    0,000
 690,95;17482,000; 1533,000;    0,000
 691,22;18048,000; 1789,000;    0,000
 691,48;17939,000; 1537,000;    0,000
 691,74;17993,000; 1387,000;    0,000
 692,00;18433,000; 1457,000;    0,000
 692,26;18619,000; 1682,000;    0,000
 692,52;18502,000; 1789,000;    0,000
 692,79;17805,000; 1496,000;    0,000
 693,05;18719,000; 1482,000;    0,000
 693,31;18862,000; 1702,000;    0,000
 693,57;18590,000; 1672,000;    0,000
 693,83;18849,000; 1460,000;    0,000
 694,10;19357,000; 1659,000;    0,000
 694,36;19605,000; 1882,000;    0,000
 694,62;18697,000; 1458,000;    0,000
 694,88;19001,000; 1651,000;    0,000
 695,14;19921,000; 2099,000;    0,000
 695,40;19404,000; 1553,000;    0,000
 695,67;19163,000; 1466,000;    0,000
 695,93;20490,000; 2628,000;    0,000
 696,19;20013,000; 2034,000;    0,000
 696,45;19126,000; 1813,000;    0,000
 696,71;19798,000; 2091,000;    0,000
 696,97;19337,000; 1504,000;    0,000
 697,23;19967,000; 1991,000;    0,000
 697,49;19964,000; 1660,000;    0,000
 697,76;19763,000; 1647,000;    0,000
 698,02;19681,000; 1849,000;    0,000
 698,28;19987,000; 1553,000;    0,000
 698,54;19877,000; 1759,000;    0,000
 698,80;20272,000; 1653,000;    0,000
 699,06;19695,000; 1805,000;    0,000
 699,32;19891,000; 1869,000;    0,000
 699,58;19451,000; 1498,000;    0,000
 699,85;20253,000; 1916,000;    0,000
 700,11;20116,000; 1494,000;    0,000
 700,37;20272,000; 1647,000;    0,000
 700,63;21181,000; 1990,000;    0,000
 700,89;21452,000; 1968,000;    0,000
 701,15;21588,000; 1943,000;    0,000
 701,41;21546,000; 1854,000;    0,000
 701,67;21386,000; 1617,000;    0,000
 701,93;21371,000; 1936,000;    0,000
 702,19;21512,000; 1895,000;    0,000
 702,45;21790,000; 1770,000;    0,000
 702,72;22029,000; 2182,000;    0,000
 702,98;22287,000; 2353,000;    0,000
 703,24;22021,000; 1777,000;    0,000
 703,50;22206,000; 2402,000;    0,000
 703,76;22115,000; 1928,000;    0,000
 704,02;22657,000; 2276,000;    0,000
 704,28;22403,000; 1610,000;    0,000
 704,54;23025,000; 2275,000;    0,000
 704,80;22409,000; 1726,000;    0,000
 705,06;22758,000; 2129,000;    0,000
 705,32;22520,000; 1853,000;    0,000
 705,58;22570,000; 2226,000;    0,000
 705,84;23082,000; 1865,000;    0,000
 706,10;23195,000; 2312,000;    0,000
 706,36;23241,000; 2994,000;    0,000
 706,62;23658,000; 2603,000;    0,000
 706,88;23403,000; 1914,000;    0,000
 707,14;23323,000; 2221,000;    0,000
 707,40;22649,000; 1721,000;    0,000
 707,66;23625,000; 1796,000;    0,000
 707,92;23781,000; 1997,000;    0,000
 708,18;23650,000; 1940,000;    0,000
 708,44;23003,000; 1530,000;    0,000
 708,70;24157,000; 1977,000;    0,000
 708,96;23720,000; 2219,000;    0,000
 709,22;24527,000; 2281,000;    0,000
 709,48;24025,000; 2227,000;    0,000
 709,74;24756,000; 2698,000;    0,000
 710,00;24398,000; 2192,000;    0,000
 710,26;24518,000; 1858,000;    0,000
 710,52;23693,000; 1566,000;    0,000
 710,78;23785,000; 1858,000;    0,000
 711,04;23952,000; 2040,000;    0,000
 711,30;24259,000; 1449,000;    0,000
 711,56;23391,000; 1758,000;    0,000
 711,82;24557,000; 2394,000;    0,000
 712,08;23008,000; 1452,000;    0,000
 712,34;24182,000; 2633,000;    0,000
 712,60;24441,000; 2734,000;    0,000
 712,86;23846,000; 2306,000;    0,000
 713,12;23896,000; 2352,000;    0,000
 713,38;23034,000; 1535,000;    0,000
 713,64;22835,000; 1774,000;    0,000
 713,90;23163,000; 1738,000;    0,000
 714,16;22451,000; 1646,000;    0,000
 714,42;23152,000; 1799,000;    0,000
 714,68;23325,000; 2275,000;    0,000
 714,94;23540,000; 2378,000;    0,000
 715,20;23645,000; 1936,000;    0,000
 715,45;24094,000; 1814,000;    0,000
 715,71;23848,000; 1979,000;    0,000
 715,97;22975,000; 1702,000;    0,000
 716,23;24158,000; 2300,000;    0,000
 716,49;24301,000; 2311,000;    0,000
 716,75;23469,000; 1566,000;    0,000
 717,01;24238,000; 2094,000;    0,000
 717,27;23463,000; 1644,000;    0,000
 717,53;24835,000; 2251,000;    0,000
 717,79;23990,000; 1599,000;    0,000
 718,05;25741,000; 2878,000;    0,000
 718,31;24277,000; 1592,000;    0,000
 718,56;24768,000; 1887,000;    0,000
 718,82;24481,000; 1847,000;    0,000
 719,08;24555,000; 1816,000;    0,000
 719,34;23842,000; 1324,000;    0,000
 719,60;24437,000; 1967,000;    0,000
 719,86;23866,000; 1651,000;    0,000
 720,12;24855,000; 1424,000;    0,000
 720,38;25099,000; 1749,000;    0,000
 720,63;25435,000; 2537,000;    0,000
 720,89;26106,000; 2445,000;    0,000
 721,15;25543,000; 2174,000;    0,000
 721,41;25239,000; 1509,000;    0,000
 721,67;25278,000; 1695,000;    0,000
 721,93;25479,000; 2046,000;    0,000
 722,19;26091,000; 1999,000;    0,000
 722,44;26563,000; 2024,000;    0,000
 722,70;26382,000; 1975,000;    0,000
 722,96;26127,000; 2057,000;    0,000
 723,22;27518,000; 1948,000;    0,000
 723,48;26675,000; 1729,000;    0,000
 723,74;27678,000; 2315,000;    0,000
 723,99;27815,000; 2253,000;    0,000
 724,25;29192,000; 2555,000;    0,000
 724,51;28893,000; 2325,000;    0,000
 724,77;29614,000; 2125,000;    0,000
 725,03;29349,000; 2249,000;    0,000
 725,29;30168,000; 1923,000;    0,000
 725,54;29784,000; 2259,000;    0,000
 725,80;29911,000; 2285,000;    0,000
 726,06;31219,000; 1900,000;    0,000
 726,32;30587,000; 1833,000;    0,000
 726,58;31300,000; 2285,000;    0,000
 726,83;30924,000; 2360,000;    0,000
 727,09;31269,000; 2354,000;    0,000
 727,35;31270,000; 2205,000;    0,000
 727,61;31625,000; 2008,000;    0,000
 727,87;32016,000; 2109,000;    0,000
 728,12;32022,000; 2389,000;    0,000
 728,38;31841,000; 2440,000;    0,000
 728,64;31705,000; 2580,000;    0,000
 728,90;33017,000; 2413,000;    0,000
 729,15;32122,000; 2096,000;    0,000
 729,41;32381,000; 2385,000;    0,000
 729,67;33378,000; 2933,000;    0,000
 729,93;31547,000; 2181,000;    0,000
 730,18;31944,000; 2004,000;    0,000
 730,44;32821,000; 2219,000;    0,000
 730,70;32702,000; 1932,000;    0,000
 730,96;32501,000; 2281,000;    0,000
 731,21;32673,000; 1992,000;    0,000
 731,47;33098,000; 2679,000;    0,000
 731,73;33008,000; 2405,000;    0,000
 731,99;34501,000; 3041,000;    0,000
 732,24;34950,000; 2618,000;    0,000
 732,50;35799,000; 2797,000;    0,000
 732,76;36535,000; 2457,000;    0,000
 733,02;36172,000; 3119,000;    0,000
 733,27;37238,000; 3028,000;    0,000
 733,53;37249,000; 2718,000;    0,000
 733,79;37639,000; 3222,000;    0,000
 734,04;36836,000; 2725,000;    0,000
 734,30;37482,000; 2751,000;    0,000
 734,56;37765,000; 2683,000;    0,000
 734,82;37662,000; 2596,000;    0,000
 735,07;38456,000; 2928,000;    0,000
 735,33;37266,000; 2530,000;    0,000
 735,59;38059,000; 3308,000;    0,000
 735,84;37948,000; 3215,000;    0,000
 736,10;36889,000; 2673,000;    0,000
 736,36;37268,000; 2739,000;    0,000
 736,61;37395,000; 3064,000;    0,000
 736,87;36261,000; 2389,000;    0,000
 737,13;36086,000; 2402,000;    0,000
 737,38;35504,000; 2270,000;    0,000
 737,64;35460,000; 2428,000;    0,000
 737,90;35555,000; 2403,000;    0,000
 738,15;36017,000; 2815,000;    0,000
 738,41;35911,000; 2882,000;    0,000
 738,67;35308,000; 2260,000;    0,000
 738,92;35056,000; 2379,000;    0,000
 739,18;35538,000; 2968,000;    0,000
 739,44;35292,000; 2651,000;    0,000
 739,69;34688,000; 2540,000;    0,000
 739,95;34910,000; 2313,000;    0,000
 740,21;35218,000; 2756,000;    0,000
 740,46;34381,000; 2407,000;    0,000
 740,72;35356,000; 2500,000;    0,000
 740,98;34362,000; 2835,000;    0,000
 741,23;33843,000; 2321,000;    0,000
 741,49;34099,000; 2739,000;    0,000
 741,74;33817,000; 2434,000;    0,000
 742,00;32750,000; 1951,000;    0,000
 742,26;32077,000; 2156,000;    0,000
 742,51;32445,000; 1986,000;    0,000
 742,77;31280,000; 1810,000;    0,000
 743,02;32066,000; 2234,000;    0,000
 743,28;29937,000; 1586,000;    0,000
 743,54;29874,000; 1781,000;    0,000
 743,79;30307,000; 2300,000;    0,000
 744,05;30408,000; 1958,000;    0,000
 744,30;31355,000; 2212,000;    0,000
 744,56;30924,000; 2330,000;    0,000
 744,82;30825,000; 1915,000;    0,000
 745,07;30783,000; 2491,000;    0,000
 745,33;32430,000; 2316,000;    0,000
 745,58;32739,000; 2637,000;    0,000
 745,84;34492,000; 2676,000;    0,000
 746,09;34218,000; 2975,000;    0,000
 746,35;35252,000; 2746,000;    0,000
 746,61;36271,000; 3067,000;    0,000
 746,86;35866,000; 2669,000;    0,000
 747,12;36592,000; 3123,000;    0,000
 747,37;36869,000; 3450,000;    0,000
 747,63;36616,000; 3184,000;    0,000
 747,88;38190,000; 3676,000;    0,000
 748,14;38141,000; 3408,000;    0,000
 748,39;37824,000; 3290,000;    0,000
 748,65;37950,000; 3370,000;    0,000
 748,91;37528,000; 3157,000;    0,000
 749,16;37289,000; 3003,000;    0,000
 749,42;38131,000; 3463,000;    0,000
 749,67;37196,000; 3144,000;    0,000
 749,93;37787,000; 3246,000;    0,000
 750,18;37934,000; 3578,000;    0,000
 750,44;37799,000; 4068,000;    0,000
 750,69;36981,000; 3439,000;    0,000
 750,95;38056,000; 3667,000;    0,000
 751,20;37299,000; 3504,000;    0,000
 751,46;36759,000; 3356,000;    0,000
 751,71;36431,000; 3731,000;    0,000
 751,97;36215,000; 3596,000;    0,000
 752,22;36776,000; 3055,000;    0,000
 752,48;35322,000; 2901,000;    0,000
 752,73;36175,000; 4101,000;    0,000
 752,99;35202,000; 2790,000;    0,000
 753,24;34657,000; 2895,000;    0,000
 753,50;34812,000; 3368,000;    0,000
 753,75;34353,000; 3806,000;    0,000
 754,01;33858,000; 2547,000;    0,000
 754,26;32651,000; 2754,000;    0,000
 754,51;32293,000; 3080,000;    0,000
 754,77;31682,000; 2813,000;    0,000
 755,02;30467,000; 2336,000;    0,000
 755,28;29235,000; 2551,000;    0,000
 755,53;28122,000; 2074,000;    0,000
 755,79;27800,000; 2183,000;    0,000
 756,04;26205,000; 2469,000;    0,000
 756,30;25067,000; 2029,000;    0,000
 756,55;23640,000; 2124,000;    0,000
 756,81;22381,000; 2284,000;    0,000
 757,06;23842,000; 3036,000;    0,000
 757,31;23992,000; 2262,000;    0,000
 757,57;24644,000; 2305,000;    0,000
 757,82;25250,000; 2727,000;    0,000
 758,08;25401,000; 2417,000;    0,000
 758,33;25101,000; 2733,000;    0,000
 758,59;26512,000; 2994,000;    0,000
 758,84;26980,000; 2876,000;    0,000
 759,09;27359,000; 2738,000;    0,000
 759,35;27772,000; 2708,000;    0,000
 759,60;28979,000; 3403,000;    0,000
 759,86;29692,000; 3882,000;    0,000
 760,11;29568,000; 3843,000;    0,000
 760,36;29927,000; 3480,000;    0,000
 760,62;29596,000; 3507,000;    0,000
 760,87;30355,000; 3591,000;    0,000
 761,13;31318,000; 3560,000;    0,000
 761,38;30458,000; 4159,000;    0,000
 761,63;30786,000; 3781,000;    0,000
 761,89;30770,000; 3875,000;    0,000
 762,14;31186,000; 4452,000;    0,000
 762,39;30277,000; 3599,000;    0,000
 762,65;30657,000; 4038,000;    0,000
 762,90;30087,000; 4110,000;    0,000
 763,16;30837,000; 4216,000;    0,000
 763,41;30175,000; 3939,000;    0,000
 763,66;29803,000; 3574,000;    0,000
 763,92;30562,000; 4298,000;    0,000
 764,17;29728,000; 3874,000;    0,000
 764,42;30100,000; 3903,000;    0,000
 764,68;29558,000; 4068,000;    0,000
 764,93;29083,000; 3610,000;    0,000
 765,18;28181,000; 3538,000;    0,000
 765,44;28470,000; 3528,000;    0,000
 765,69;29438,000; 4890,000;    0,000
 765,94;29325,000; 3677,000;    0,000
 766,20;29294,000; 4772,000;    0,000
 766,45;29096,000; 4354,000;    0,000
 766,70;29981,000; 4289,000;    0,000
 766,96;29097,000; 3930,000;    0,000
 767,21;29885,000; 4269,000;    0,000
 767,46;27839,000; 3623,000;    0,000
 767,72;28254,000; 3920,000;    0,000
 767,97;26816,000; 3756,000;    0,000
 768,22;26501,000; 3730,000;    0,000
 768,47;26030,000; 3882,000;    0,000
 768,73;24440,000; 3580,000;    0,000
 768,98;23695,000; 3037,000;    0,000
 769,23;22996,000; 3073,000;    0,000
 769,49;21886,000; 3018,000;    0,000
 769,74;20547,000; 2530,000;    0,000
 769,99;17098,000; 2185,000;    0,000
 770,24;15566,000; 2503,000;    0,000
 770,50;15560,000; 2200,000;    0,000
 770,75;15475,000; 2422,000;    0,000
 771,00;15083,000; 2268,000;    0,000
 771,25;15213,000; 1677,000;    0,000
 771,51;15109,000; 1959,000;    0,000
 771,76;14866,000; 1765,000;    0,000
 772,01;14997,000; 2076,000;    0,000
 772,26;14288,000; 1755,000;    0,000
 772,52;14380,000; 1750,000;    0,000
 772,77;14447,000; 1570,000;    0,000
 773,02;14339,000; 1720,000;    0,000
 773,27;14219,000; 1931,000;    0,000
 773,53;14128,000; 1887,000;    0,000
 773,78;14238,000; 1982,000;    0,000
 774,03;13599,000; 1466,000;    0,000
 774,28;13738,000; 2081,000;    0,000
 774,54;13411,000; 1851,000;    0,000
 774,79;13328,000; 1866,000;    0,000
 775,04;13417,000; 1966,000;    0,000
 775,29;13172,000; 1736,000;    0,000
 775,54;12433,000; 1122,000;    0,000
 775,80;12562,000; 1476,000;    0,000
 776,05;12310,000; 1286,000;    0,000
 776,30;12135,000; 1496,000;    0,000
 776,55;11962,000; 1637,000;    0,000
 776,80;11643,000; 1880,000;    0,000
 777,06;10771,000; 1245,000;    0,000
 777,31;11101,000; 1748,000;    0,000
 777,56; 9701,000;  687,000;    0,000
 777,81; 9425,000; 1099,000;    0,000
 778,06; 8837,000;  649,000;    0,000
 778,32; 9102,000; 1343,000;    0,000
 778,57; 8204,000;  805,000;    0,000
 778,82; 6909,000;  504,000;    0,000
 779,07; 5658,000;  265,000;    0,000
 779,32; 5509,000;  267,000;    0,000
 779,57; 5545,000;   87,000;    0,000
 779,83; 5524,000;  201,000;    0,000
 780,08; 5346,000;  297,000;    0,000
 780,33; 5867,000;  505,000;    0,000
 780,58; 5564,000;  857,000;    0,000
 780,83; 5503,000;  556,000;    0,000
 781,08; 5466,000;  556,000;    0,000
 781,33; 5251,000;  447,000;    0,000
 781,59; 5129,000;  -18,000;    0,000
 781,84; 5246,000;  179,000;    0,000
 782,09; 5179,000;  241,000;    0,000
 782,34; 4871,000;   95,000;    0,000
 782,59; 5153,000;  257,000;    0,000
 782,84; 5261,000;  706,000;    0,000
 783,09; 4923,000;  359,000;    0,000
 783,34; 5198,000;  769,000;    0,000
 783,59; 4605,000;  301,000;    0,000
 783,85; 4503,000;  223,000;    0,000
 784,10; 4192,000;  104,000;    0,000
 784,35; 5272,000;  734,000;    0,000
 784,60; 4751,000;  388,000;    0,000
 784,85; 4583,000;  405,000;    0,000
 785,10; 4349,000;  507,000;    0,000
 785,35; 4360,000;  171,000;    0,000
 785,60; 3886,000;  -24,000;    0,000
 785,85; 4522,000;  577,000;    0,000
 786,10; 4339,000;  330,000;    0,000
 786,35; 5079,000; 1314,000;    0,000
 786,61; 4244,000;  959,000;    0,000
 786,86; 4129,000;  529,000;    0,000
 787,11; 3807,000;  282,000;    0,000
 787,36; 4602,000; 1014,000;    0,000
 787,61; 3973,000;  608,000;    0,000
 787,86; 3862,000;  408,000;    0,000
 788,11; 3820,000;  612,000;    0,000
 788,36; 4486,000;  436,000;    0,000
 788,61; 4857,000;  618,000;    0,000
 788,86; 5431,000;  875,000;    0,000
 789,11; 5565,000;  923,000;    0,000
 789,36; 5536,000;  723,000;    0,000
 789,61; 5849,000;  895,000;    0,000
 789,86; 6365,000; 1276,000;    0,000
 790,11; 6073,000; 1121,000;    0,000
 790,36; 6593,000; 1116,000;    0,000
 790,61; 6090,000;  901,000;    0,000
 790,86; 6415,000; 1014,000;    0,000
 791,11; 6684,000; 1447,000;    0,000
 791,36; 6927,000; 1213,000;    0,000
 791,61; 6684,000; 1443,000;    0,000
 791,86; 7171,000; 1279,000;    0,000
 792,11; 6897,000; 1636,000;    0,000
 792,36; 6866,000; 1194,000;    0,000
 792,61; 7257,000; 1704,000;    0,000
 792,86; 7000,000; 1466,000;    0,000
 793,11; 7529,000; 1887,000;    0,000
 793,36; 6837,000; 1127,000;    0,000
 793,61; 6973,000; 1230,000;    0,000
 793,86; 7191,000; 1613,000;    0,000
 794,11; 7176,000; 1310,000;    0,000
 794,36; 8189,000; 1610,000;    0,000
 794,61; 7848,000; 1915,000;    0,000
 794,86; 8557,000; 1992,000;    0,000
 795,11; 8831,000; 2018,000;    0,000
 795,36; 9848,000; 2376,000;    0,000
 795,61; 9862,000; 2436,000;    0,000
 795,86;10640,000; 2556,000;    0,000
 796,11;10590,000; 2457,000;    0,000
 796,36;11130,000; 2548,000;    0,000
 796,61;11352,000; 2823,000;    0,000
 796,86;11227,000; 2599,000;    0,000
 797,11;10954,000; 2489,000;    0,000
 797,36;12057,000; 3079,000;    0,000
 797,60;11595,000; 2595,000;    0,000
 797,85;12028,000; 3166,000;    0,000
 798,10;12511,000; 3433,000;    0,000
 798,35;11717,000; 2619,000;    0,000
 798,60;11824,000; 3061,000;    0,000
 798,85;11712,000; 2954,000;    0,000
 799,10;12562,000; 3524,000;    0,000
 799,35;11942,000; 2893,000;    0,000
 799,60;11400,000; 3003,000;    0,000
 799,85;11696,000; 3193,000;    0,000
 800,10;10642,000; 2512,000;    0,000
 800,34;10731,000; 2327,000;    0,000
 800,59;10175,000; 2292,000;    0,000
 800,84; 9990,000; 2184,000;    0,000
 801,09; 9982,000; 2768,000;    0,000
 801,34; 9639,000; 2835,000;    0,000
 801,59; 8485,000; 2169,000;    0,000
 801,84; 8990,000; 2361,000;    0,000
 802,09; 8315,000; 2103,000;    0,000
 802,34; 8631,000; 2045,000;    0,000
 802,58; 8351,000; 1925,000;    0,000
 802,83; 9811,000; 2299,000;    0,000
 803,08; 9561,000; 1954,000;    0,000
 803,33;10208,000; 2216,000;    0,000
 803,58; 9803,000; 2384,000;    0,000
 803,83;11078,000; 2719,000;    0,000
 804,08;11283,000; 2447,000;    0,000
 804,32;12955,000; 3912,000;    0,000
 804,57;12594,000; 3065,000;    0,000
 804,82;12940,000; 3231,000;    0,000
 805,07;14791,000; 3501,000;    0,000
 805,32;16424,000; 4108,000;    0,000
 805,57;18027,000; 4379,000;    0,000
 805,81;18209,000; 4443,000;    0,000
 806,06;19756,000; 4791,000;    0,000
 806,31;19910,000; 4369,000;    0,000
 806,56;20012,000; 4769,000;    0,000
 806,81;20948,000; 5134,000;    0,000
 807,05;20276,000; 4781,000;    0,000
 807,30;21418,000; 5504,000;    0,000
 807,55;21273,000; 5770,000;    0,000
 807,80;20706,000; 5047,000;    0,000
 808,05;21470,000; 5154,000;    0,000
 808,29;22036,000; 5855,000;    0,000
 808,54;22047,000; 5809,000;    0,000
 808,79;22623,000; 5958,000;    0,000
 809,04;22225,000; 5653,000;    0,000
 809,29;22875,000; 5808,000;    0,000
 809,53;22116,000; 5671,000;    0,000
 809,78;23260,000; 6089,000;    0,000
 810,03;22895,000; 5852,000;    0,000
 810,28;23311,000; 5851,000;    0,000
 810,52;23305,000; 5809,000;    0,000
 810,77;22856,000; 5702,000;    0,000
 811,02;23528,000; 6390,000;    0,000
 811,27;23486,000; 5757,000;    0,000
 811,51;23559,000; 6167,000;    0,000
 811,76;22493,000; 6005,000;    0,000
 812,01;22200,000; 5648,000;    0,000
 812,26;22782,000; 6118,000;    0,000
 812,50;22005,000; 5606,000;    0,000
 812,75;21924,000; 5310,000;    0,000
 813,00;21438,000; 5520,000;    0,000
 813,25;22024,000; 5629,000;    0,000
 813,49;20947,000; 5186,000;    0,000
 813,74;20841,000; 5256,000;    0,000
 813,99;19638,000; 5192,000;    0,000
 814,23;19423,000; 5689,000;    0,000
 814,48;18882,000; 5716,000;    0,000
 814,73;18328,000; 5030,000;    0,000
 814,98;16822,000; 4597,000;    0,000
 815,22;16393,000; 4867,000;    0,000
 815,47;14841,000; 3816,000;    0,000
 815,72;14045,000; 3887,000;    0,000
 815,96;12766,000; 3778,000;    0,000
 816,21;11123,000; 3047,000;    0,000
 816,46; 9774,000; 2695,000;    0,000
 816,70; 9563,000; 3019,000;    0,000
 816,95; 7644,000; 2181,000;    0,000
 817,20; 6763,000; 1874,000;    0,000
 817,44; 5497,000; 1423,000;    0,000
 817,69; 4569,000; 1062,000;    0,000
 817,94; 3457,000; 1045,000;    0,000
 818,18; 1210,000;  351,000;    0,000
 818,43; 1075,000;  226,000;    0,000
 818,68;  981,000;  114,000;    0,000
 818,92; 1040,000;  372,000;    0,000
 819,17; 1217,000;  313,000;    0,000
 819,42;  793,000;  -69,000;    0,000
 819,66; 1008,000;   94,000;    0,000
 819,91; 1418,000;  612,000;    0,000
 820,16; 1596,000;  627,000;    0,000
 820,40; 2204,000; 1054,000;    0,000
 820,65; 2001,000;  802,000;    0,000
 820,90; 1742,000;  166,000;    0,000
 821,14; 1945,000;  421,000;    0,000
 821,39; 1926,000;  435,000;    0,000
 821,63; 2150,000;  558,000;    0,000
 821,88; 1878,000;  154,000;    0,000
 822,13; 2019,000;  384,000;    0,000
 822,37; 2442,000;  888,000;    0,000
 822,62; 2479,000;  666,000;    0,000
 822,86; 2067,000;  510,000;    0,000
 823,11; 2359,000;  472,000;    0,000
 823,36; 2627,000;  859,000;    0,000
 823,60; 2667,000; 1039,000;    0,000
 823,85; 2799,000; 1076,000;    0,000
 824,09; 2952,000; 1000,000;    0,000
 824,34; 2529,000;  725,000;    0,000
 824,59; 2978,000;  830,000;    0,000
 824,83; 2685,000;  745,000;    0,000
 825,08; 2434,000;  347,000;    0,000
 825,32; 2494,000;  611,000;    0,000
 825,57; 2761,000;  719,000;    0,000
 825,81; 2727,000;  880,000;    0,000
 826,06; 2765,000;  415,000;    0,000
 826,30; 2273,000;  363,000;    0,000
 826,55; 2823,000;  710,000;    0,000
 826,80; 2246,000;  549,000;    0,000
 827,04; 3334,000; 1297,000;    0,000
 827,29; 2430,000;  725,000;    0,000
 827,53; 2739,000; 1172,000;    0,000
 827,78; 2551,000;  962,000;    0,000
 828,02; 2591,000;  681,000;    0,000
 828,27; 2349,000;  698,000;    0,000
 828,51; 2571,000;  693,000;    0,000
 828,76; 2421,000;  661,000;    0,000
 829,00; 2624,000;  848,000;    0,000
 829,25; 2453,000;  704,000;    0,000
 829,49; 2499,000;  688,000;    0,000
 829,74; 2499,000;  864,000;    0,000
 829,98; 2429,000;  707,000;    0,000
 830,23; 2018,000;  629,000;    0,000
 830,47; 2235,000;  729,000;    0,000
 830,72; 2011,000;  553,000;    0,000
 830,96; 2136,000;  681,000;    0,000
 831,21; 1318,000;   45,000;    0,000
 831,45; 2241,000; 1051,000;    0,000
 831,70; 1621,000;  234,000;    0,000
 831,94; 1416,000;  307,000;    0,000
 832,19; 1314,000;  476,000;    0,000
 832,43; 1207,000;  301,000;    0,000
 832,68; 1392,000;  635,000;    0,000
 832,92; 1199,000;  414,000;    0,000
 833,17;  370,000; -119,000;    0,000
 833,41; 1155,000;  795,000;    0,000
 833,66;  575,000;  182,000;    0,000
 833,90;  676,000;  414,000;    0,000
 834,14;  423,000;   -2,000;    0,000
 834,39; 1049,000;  295,000;    0,000
 834,63; 1319,000;  515,000;    0,000
 834,88; 1938,000;  606,000;    0,000
 835,12; 2036,000;  808,000;    0,000
 835,37; 2356,000;  914,000;    0,000
 835,61; 2032,000;  653,000;    0,000
 835,86; 2956,000; 1520,000;    0,000
 836,10; 3043,000;  652,000;    0,000
 836,34; 3836,000; 1151,000;    0,000
 836,59; 3964,000;  970,000;    0,000
 836,83; 4426,000; 1217,000;    0,000
 837,08; 4658,000; 1617,000;    0,000
 837,32; 5124,000; 1677,000;    0,000
 837,56; 5374,000; 1429,000;    0,000
 837,81; 5530,000; 1446,000;    0,000
 838,05; 5927,000; 1966,000;    0,000
 838,30; 6103,000; 1855,000;    0,000
 838,54; 5996,000; 1886,000;    0,000
 838,78; 6573,000; 2107,000;    0,000
 839,03; 6609,000; 1872,000;    0,000
 839,27; 7392,000; 2296,000;    0,000
 839,52; 7501,000; 2579,000;    0,000
 839,76; 7190,000; 2188,000;    0,000
 840,00; 8340,000; 3117,000;    0,000
 840,25; 7373,000; 2097,000;    0,000
 840,49; 7420,000; 2265,000;    0,000
 840,73; 7483,000; 2454,000;    0,000
 840,98; 7245,000; 2283,000;    0,000
 841,22; 7570,000; 2149,000;    0,000
 841,46; 7708,000; 2430,000;    0,000
 841,71; 8106,000; 2393,000;    0,000
 841,95; 7495,000; 2330,000;    0,000
 842,19; 7517,000; 2452,000;    0,000
 842,44; 7029,000; 2072,000;    0,000
 842,68; 7618,000; 2282,000;    0,000
 842,92; 7283,000; 2346,000;    0,000
 843,17; 7686,000; 2216,000;    0,000
 843,41; 7508,000; 2281,000;    0,000
 843,65; 7951,000; 2697,000;    0,000
 843,90; 7049,000; 2236,000;    0,000
 844,14; 7318,000; 2516,000;    0,000
 844,38; 7075,000; 2277,000;    0,000
 844,63; 6626,000; 1963,000;    0,000
 844,87; 6821,000; 2238,000;    0,000
 845,11; 6847,000; 2449,000;    0,000
 845,36; 5659,000; 1793,000;    0,000
 845,60; 6080,000; 1729,000;    0,000
 845,84; 5809,000; 1593,000;    0,000
 846,08; 6161,000; 2012,000;    0,000
 846,33; 5837,000; 1964,000;    0,000
 846,57; 5772,000; 1695,000;    0,000
 846,81; 4678,000; 1404,000;    0,000
 847,06; 5231,000; 1901,000;    0,000
 847,30; 4102,000; 1473,000;    0,000
 847,54; 3519,000; 1071,000;    0,000
 847,78; 3556,000; 1199,000;    0,000
 848,03; 2941,000;  917,000;    0,000
 848,27; 3159,000; 1202,000;    0,000
 848,51; 2967,000; 1101,000;    0,000
 848,75; 2693,000; 1295,000;    0,000
 849,00; 2172,000; 1078,000;    0,000
 849,24; 1560,000;  436,000;    0,000
 849,48; 1476,000;  226,000;    0,000
 849,72; 1937,000;  738,000;    0,000
 849,97; 2223,000; 1022,000;    0,000
 850,21; 1844,000;  726,000;    0,000
 850,45; 2092,000;  935,000;    0,000
 850,69; 1538,000;  544,000;    0,000
 850,94; 1713,000;  502,000;    0,000
 851,18; 1387,000;  282,000;    0,000
 851,42; 1674,000;  374,000;    0,000
 851,66; 1926,000;  947,000;    0,000
 851,90; 1693,000;  581,000;    0,000
 852,15; 1778,000;  628,000;    0,000
 852,39; 1454,000;  484,000;    0,000
 852,63; 1325,000;  204,000;    0,000
 852,87; 2131,000; 1042,000;    0,000
 853,11; 1514,000;  428,000;    0,000
 853,36; 1853,000;  651,000;    0,000
 853,60; 1649,000;  747,000;    0,000
 853,84; 1797,000;  937,000;    0,000
 854,08; 1665,000;  816,000;    0,000
 854,32; 1663,000;  381,000;    0,000
 854,56; 1750,000;  663,000;    0,000
 854,81; 2173,000; 1070,000;    0,000
 855,05; 1182,000;  396,000;    0,000
 855,29; 2057,000; 1075,000;    0,000
 855,53; 1379,000;  280,000;    0,000
 855,77; 1629,000;  660,000;    0,000
 856,01; 1308,000;  426,000;    0,000
 856,26; 1431,000;  589,000;    0,000
 856,50; 1268,000;  427,000;    0,000
 856,74; 1026,000;   91,000;    0,000
 856,98; 1282,000;  689,000;    0,000
 857,22; 1306,000;  614,000;    0,000
 857,46; 1263,000;  494,000;    0,000
 857,70; 1362,000;  652,000;    0,000
 857,94; 1069,000;  575,000;    0,000
 858,19;  887,000;  283,000;    0,000
 858,43;  819,000;  176,000;    0,000
 858,67;  492,000;  166,000;    0,000
 858,91;  719,000;  585,000;    0,000
 859,15;  277,000;  144,000;    0,000
 859,39;  705,000;  489,000;    0,000
 859,63;  366,000;  337,000;    0,000
 859,87; 1362,000; 1396,000;    0,000
 860,11;  612,000;  315,000;    0,000
 860,35;  460,000;   91,000;    0,000
 860,60;  265,000;  -45,000;    0,000
 860,84;  419,000;   70,000;    0,000
 861,08;  797,000;  537,000;    0,000
 861,32;  732,000;  487,000;    0,000
 861,56;  972,000;  612,000;    0,000
 861,80;  736,000;  463,000;    0,000
 862,04;  968,000;  688,000;    0,000
 862,28; 1300,000;  990,000;    0,000
 862,52;  804,000;  598,000;    0,000
 862,76;  654,000;  483,000;    0,000
 863,00; 1158,000; 1098,000;    0,000
 863,24;  640,000;  177,000;    0,000
 863,48;  888,000;  580,000;    0,000
 863,72;  846,000;  688,000;    0,000
 863,96; 1353,000; 1254,000;    0,000
 864,20;  977,000;  892,000;    0,000
 864,44; 1074,000;  569,000;    0,000
 864,69;  610,000;  311,000;    0,000
 864,93;  909,000;  363,000;    0,000
 865,17;  438,000;  152,000;    0,000
 865,41; 1657,000; 1233,000;    0,000
 865,65;  737,000;  308,000;    0,000
 865,89; 1057,000;  374,000;    0,000
 866,13; 1072,000;  583,000;    0,000
 866,37; 1579,000; 1073,000;    0,000
 866,61;  992,000;  338,000;    0,000
 866,85; 1147,000;  587,000;    0,000
 867,09; 1352,000;  412,000;    0,000
 867,33; 1990,000; 1328,000;    0,000
 867,57; 1515,000;  926,000;    0,000
 867,81; 1590,000;  894,000;    0,000
 868,05; 1425,000;  671,000;    0,000
 868,29; 1268,000;  633,000;    0,000
 868,53; 1539,000;  691,000;    0,000
 868,76; 1800,000;  988,000;    0,000
 869,00; 1327,000;  622,000;    0,000
 869,24; 1967,000;  980,000;    0,000
 869,48; 1590,000;  772,000;    0,000
 869,72; 1242,000;  412,000;    0,000
 869,96; 1186,000;  597,000;    0,000
 870,20; 1372,000;  822,000;    0,000
 870,44; 1303,000;  719,000;    0,000
 870,68; 1937,000; 1205,000;    0,000
 870,92; 1313,000;  753,000;    0,000
 871,16; 1721,000;  811,000;    0,000
 871,40; 2144,000; 1452,000;    0,000
 871,64; 2006,000; 1108,000;    0,000
 871,88; 1424,000;  604,000;    0,000
 872,12; 1465,000;  707,000;    0,000
 872,36; 1938,000; 1079,000;    0,000
 872,60; 1412,000;  851,000;    0,000
 872,83; 1377,000;  687,000;    0,000
 873,07; 1940,000; 1255,000;    0,000
 873,31; 1500,000;  871,000;    0,000
 873,55; 1603,000; 1258,000;    0,000
 873,79; 1346,000;  649,000;    0,000
 874,03; 1573,000;  968,000;    0,000
 874,27; 1424,000;  693,000;    0,000
 874,51; 1620,000;  908,000;    0,000
 874,75; 1717,000;  968,000;    0,000
 874,99; 1517,000;  947,000;    0,000
 875,22; 1580,000; 1189,000;    0,000
 875,46; 1444,000;  775,000;    0,000
 875,70; 1190,000;  879,000;    0,000
 875,94; 1837,000; 1099,000;    0,000
 876,18; 1466,000; 1107,000;    0,000
 876,42; 1254,000;  827,000;    0,000
 876,66; 1480,000; 1175,000;    0,000
 876,89; 1423,000; 1014,000;    0,000
 877,13; 1812,000; 1229,000;    0,000
 877,37; 1459,000;  802,000;    0,000
 877,61; 1447,000; 1127,000;    0,000
 877,85; 1766,000; 1670,000;    0,000
 878,09; 2093,000; 1838,000;    0,000
 878,33; 1552,000; 1203,000;    0,000
 878,56; 1239,000; 1142,000;    0,000
 878,80; 1230,000; 1142,000;    0,000
 879,04; 1417,000; 1568,000;    0,000
 879,28; 1807,000; 1668,000;    0,000
 879,52; 1302,000; 1195,000;    0,000
 879,75; 1764,000; 1618,000;    0,000
 879,99; 1621,000; 1584,000;    0,000
 880,23; 1743,000; 1369,000;    0,000
 880,47; 1763,000; 1581,000;    0,000
 880,71; 1909,000; 1706,000;    0,000
 880,95; 1942,000; 2066,000;    0,000
 881,18; 2243,000; 1757,000;    0,000
 881,42; 2333,000; 2202,000;    0,000
 881,66; 2534,000; 2555,000;    0,000
 881,90; 2452,000; 2050,000;    0,000
 882,13; 2175,000; 2238,000;    0,000
 882,37; 2489,000; 2528,000;    0,000
 882,61; 2797,000; 2750,000;    0,000
 882,85; 3109,000; 2749,000;    0,000
 883,09; 3232,000; 3200,000;    0,000
 883,32; 3547,000; 3452,000;    0,000
 883,56; 3663,000; 3739,000;    0,000
 883,80; 3602,000; 3764,000;    0,000
 884,04; 4415,000; 4057,000;    0,000
 884,27; 5162,000; 5097,000;    0,000
 884,51; 5176,000; 4775,000;    0,000
 884,75; 5491,000; 5777,000;    0,000
 884,99; 6697,000; 6635,000;    0,000
 885,22; 7003,000; 7196,000;    0,000
 885,46; 8507,000; 8313,000;    0,000

