qd5_adirondack_green
Integration time [ms]:  500,00
Averaging Nr. [scans]: 1
Smoothing Nr. [pixels]: 0
Data measured with spectrometer [name]: 1412150E1
Wave   ;Sample   ;Dark     ;Reference;Scope
[nm]   ;[counts] ;[counts] ;[counts] 

 337,19;49017,000; 4519,000;    0,000
 337,48;50828,000; 4777,000;    0,000
 337,77;51433,000; 4996,000;    0,000
 338,07;52500,000; 5120,000;    0,000
 338,36;53767,000; 5286,000;    0,000
 338,66;55673,000; 5142,000;    0,000
 338,95;56792,000; 5652,000;    0,000
 339,24;58209,000; 5451,000;    0,000
 339,54;58940,000; 5497,000;    0,000
 339,83;59638,000; 5938,000;    0,000
 340,12;60941,000; 6176,000;    0,000
 340,42;62193,000; 5847,000;    0,000
 340,71;63175,000; 6095,000;    0,000
 341,00;63918,000; 6297,000;    0,000
 341,30;63711,000; 6500,000;    0,000
 341,59;63918,000; 6309,000;    0,000
 341,88;63711,000; 6505,000;    0,000
 342,18;63918,000; 6662,000;    0,000
 342,47;63711,000; 7136,000;    0,000
 342,76;63918,000; 7683,000;    0,000
 343,06;63711,000; 6938,000;    0,000
 343,35;63918,000; 7263,000;    0,000
 343,64;63711,000; 7272,000;    0,000
 343,94;63918,000; 7497,000;    0,000
 344,23;63711,000; 7195,000;    0,000
 344,52;63918,000; 8224,000;    0,000
 344,82;63711,000; 7697,000;    0,000
 345,11;63918,000; 7983,000;    0,000
 345,40;63711,000; 8548,000;    0,000
 345,70;63918,000; 8504,000;    0,000
 345,99;63711,000; 8171,000;    0,000
 346,28;63918,000; 8727,000;    0,000
 346,58;63711,000; 8549,000;    0,000
 346,87;63918,000; 8801,000;    0,000
 347,16;63711,000; 9409,000;    0,000
 347,45;63918,000; 9224,000;    0,000
 347,75;63711,000; 9093,000;    0,000
 348,04;63918,000;10353,000;    0,000
 348,33;63711,000;10122,000;    0,000
 348,63;63918,000;10359,000;    0,000
 348,92;63711,000; 9975,000;    0,000
 349,21;63918,000;10645,000;    0,000
 349,51;63711,000;10752,000;    0,000
 349,80;63918,000;10882,000;    0,000
 350,09;63711,000;10725,000;    0,000
 350,38;63918,000;11350,000;    0,000
 350,68;63711,000;11062,000;    0,000
 350,97;63918,000;12057,000;    0,000
 351,26;63711,000;12382,000;    0,000
 351,55;63918,000;11691,000;    0,000
 351,85;63711,000;11512,000;    0,000
 352,14;63918,000;12062,000;    0,000
 352,43;63711,000;12134,000;    0,000
 352,73;63918,000;12194,000;    0,000
 353,02;63711,000;12961,000;    0,000
 353,31;63918,000;12741,000;    0,000
 353,60;63711,000;13288,000;    0,000
 353,90;63918,000;13402,000;    0,000
 354,19;63711,000;13302,000;    0,000
 354,48;63918,000;13583,000;    0,000
 354,77;63711,000;13930,000;    0,000
 355,07;63918,000;14181,000;    0,000
 355,36;63711,000;14068,000;    0,000
 355,65;63918,000;15094,000;    0,000
 355,94;63711,000;14989,000;    0,000
 356,23;63918,000;15518,000;    0,000
 356,53;63711,000;16018,000;    0,000
 356,82;63918,000;16227,000;    0,000
 357,11;63711,000;16204,000;    0,000
 357,40;63918,000;15979,000;    0,000
 357,70;63711,000;16676,000;    0,000
 357,99;63918,000;17580,000;    0,000
 358,28;63711,000;17299,000;    0,000
 358,57;63918,000;18173,000;    0,000
 358,87;63711,000;17755,000;    0,000
 359,16;63918,000;18435,000;    0,000
 359,45;63711,000;18771,000;    0,000
 359,74;63918,000;19402,000;    0,000
 360,03;63711,000;20186,000;    0,000
 360,33;63918,000;19664,000;    0,000
 360,62;63711,000;19493,000;    0,000
 360,91;63918,000;20114,000;    0,000
 361,20;63711,000;20008,000;    0,000
 361,49;63918,000;20694,000;    0,000
 361,79;63711,000;20705,000;    0,000
 362,08;63918,000;21141,000;    0,000
 362,37;63711,000;21162,000;    0,000
 362,66;63918,000;20959,000;    0,000
 362,95;63711,000;21384,000;    0,000
 363,25;63918,000;21529,000;    0,000
 363,54;63711,000;21446,000;    0,000
 363,83;63918,000;21732,000;    0,000
 364,12;63711,000;21897,000;    0,000
 364,41;63918,000;21721,000;    0,000
 364,70;63711,000;22250,000;    0,000
 365,00;63918,000;22000,000;    0,000
 365,29;63711,000;22139,000;    0,000
 365,58;63918,000;22063,000;    0,000
 365,87;63711,000;21752,000;    0,000
 366,16;63918,000;21322,000;    0,000
 366,45;63711,000;21847,000;    0,000
 366,75;63918,000;21324,000;    0,000
 367,04;63711,000;21463,000;    0,000
 367,33;63918,000;21349,000;    0,000
 367,62;63711,000;21652,000;    0,000
 367,91;63918,000;21204,000;    0,000
 368,20;63711,000;20775,000;    0,000
 368,50;63918,000;21236,000;    0,000
 368,79;63711,000;20604,000;    0,000
 369,08;63918,000;20361,000;    0,000
 369,37;63711,000;20559,000;    0,000
 369,66;63918,000;20310,000;    0,000
 369,95;63711,000;20243,000;    0,000
 370,24;63918,000;20353,000;    0,000
 370,53;63711,000;19478,000;    0,000
 370,83;63918,000;19258,000;    0,000
 371,12;63711,000;18966,000;    0,000
 371,41;63918,000;18842,000;    0,000
 371,70;63711,000;18296,000;    0,000
 371,99;63918,000;18008,000;    0,000
 372,28;63711,000;17604,000;    0,000
 372,57;63918,000;17814,000;    0,000
 372,86;63711,000;16670,000;    0,000
 373,16;63918,000;16681,000;    0,000
 373,45;63711,000;16549,000;    0,000
 373,74;63918,000;15829,000;    0,000
 374,03;63711,000;16024,000;    0,000
 374,32;63918,000;16248,000;    0,000
 374,61;63711,000;15984,000;    0,000
 374,90;63918,000;15269,000;    0,000
 375,19;63711,000;14620,000;    0,000
 375,48;63918,000;14773,000;    0,000
 375,78;63711,000;14703,000;    0,000
 376,07;63918,000;14255,000;    0,000
 376,36;63711,000;14048,000;    0,000
 376,65;63918,000;14089,000;    0,000
 376,94;63711,000;13344,000;    0,000
 377,23;63918,000;13638,000;    0,000
 377,52;63711,000;13325,000;    0,000
 377,81;63918,000;12717,000;    0,000
 378,10;63711,000;13206,000;    0,000
 378,39;63918,000;13371,000;    0,000
 378,68;63711,000;12866,000;    0,000
 378,97;63918,000;12559,000;    0,000
 379,26;63711,000;11454,000;    0,000
 379,56;63918,000;11636,000;    0,000
 379,85;63711,000;12247,000;    0,000
 380,14;63918,000;11310,000;    0,000
 380,43;63711,000;11443,000;    0,000
 380,72;63918,000;12082,000;    0,000
 381,01;63711,000;11839,000;    0,000
 381,30;63918,000;11308,000;    0,000
 381,59;63711,000;11084,000;    0,000
 381,88;63918,000;10752,000;    0,000
 382,17;63711,000;10656,000;    0,000
 382,46;63918,000;11054,000;    0,000
 382,75;63711,000;10779,000;    0,000
 383,04;63918,000;10369,000;    0,000
 383,33;63711,000;10529,000;    0,000
 383,62;63918,000;10143,000;    0,000
 383,91;63711,000; 9842,000;    0,000
 384,20;63918,000;10664,000;    0,000
 384,49;63711,000;10016,000;    0,000
 384,78;63918,000; 9537,000;    0,000
 385,07;63711,000; 9869,000;    0,000
 385,36;63918,000; 9800,000;    0,000
 385,65;63711,000; 9627,000;    0,000
 385,94;63918,000; 9539,000;    0,000
 386,23;63711,000; 9454,000;    0,000
 386,52;63918,000; 8805,000;    0,000
 386,81;63711,000; 9847,000;    0,000
 387,10;63918,000; 9246,000;    0,000
 387,39;63711,000; 8569,000;    0,000
 387,68;63918,000; 8956,000;    0,000
 387,97;63711,000; 9054,000;    0,000
 388,26;63918,000; 8392,000;    0,000
 388,55;63711,000; 8528,000;    0,000
 388,84;63918,000; 8787,000;    0,000
 389,13;63711,000; 8379,000;    0,000
 389,42;63918,000; 8860,000;    0,000
 389,71;63711,000; 8775,000;    0,000
 390,00;63918,000; 8527,000;    0,000
 390,29;63711,000; 8773,000;    0,000
 390,58;63918,000; 8302,000;    0,000
 390,87;63711,000; 8653,000;    0,000
 391,16;63918,000; 8430,000;    0,000
 391,45;63711,000; 8257,000;    0,000
 391,74;63918,000; 8053,000;    0,000
 392,03;63711,000; 8568,000;    0,000
 392,32;63918,000; 7993,000;    0,000
 392,61;63711,000; 7782,000;    0,000
 392,90;63918,000; 7701,000;    0,000
 393,19;63711,000; 7850,000;    0,000
 393,48;63918,000; 7493,000;    0,000
 393,77;63711,000; 7194,000;    0,000
 394,06;63918,000; 7300,000;    0,000
 394,35;63711,000; 7192,000;    0,000
 394,64;63918,000; 7166,000;    0,000
 394,93;63711,000; 6812,000;    0,000
 395,22;62331,000; 7084,000;    0,000
 395,51;61334,000; 7275,000;    0,000
 395,80;59876,000; 6721,000;    0,000
 396,09;58351,000; 6734,000;    0,000
 396,38;58009,000; 6827,000;    0,000
 396,67;55950,000; 6625,000;    0,000
 396,95;55694,000; 7214,000;    0,000
 397,24;53750,000; 7052,000;    0,000
 397,53;54704,000; 8068,000;    0,000
 397,82;56807,000; 8647,000;    0,000
 398,11;59056,000; 9783,000;    0,000
 398,40;61625,000;10706,000;    0,000
 398,69;63918,000;11843,000;    0,000
 398,98;63711,000;12285,000;    0,000
 399,27;63918,000;12832,000;    0,000
 399,56;63711,000;12997,000;    0,000
 399,85;63918,000;13598,000;    0,000
 400,14;63711,000;14305,000;    0,000
 400,42;63918,000;14131,000;    0,000
 400,71;63711,000;13799,000;    0,000
 401,00;63918,000;14597,000;    0,000
 401,29;63711,000;14540,000;    0,000
 401,58;63918,000;14557,000;    0,000
 401,87;63711,000;15101,000;    0,000
 402,16;63918,000;14872,000;    0,000
 402,45;63711,000;14890,000;    0,000
 402,74;63918,000;15279,000;    0,000
 403,03;63711,000;14890,000;    0,000
 403,31;63918,000;15193,000;    0,000
 403,60;63711,000;14965,000;    0,000
 403,89;63918,000;14546,000;    0,000
 404,18;63711,000;14709,000;    0,000
 404,47;63918,000;14314,000;    0,000
 404,76;63711,000;14718,000;    0,000
 405,05;63918,000;14495,000;    0,000
 405,34;63711,000;13520,000;    0,000
 405,62;63918,000;14395,000;    0,000
 405,91;63711,000;14404,000;    0,000
 406,20;63918,000;14296,000;    0,000
 406,49;63711,000;14141,000;    0,000
 406,78;63918,000;13849,000;    0,000
 407,07;63711,000;13801,000;    0,000
 407,36;63918,000;13823,000;    0,000
 407,64;63711,000;13621,000;    0,000
 407,93;63918,000;13981,000;    0,000
 408,22;63711,000;13202,000;    0,000
 408,51;63918,000;13321,000;    0,000
 408,80;63711,000;12237,000;    0,000
 409,09;63918,000;12421,000;    0,000
 409,38;63711,000;11910,000;    0,000
 409,66;63918,000;12082,000;    0,000
 409,95;62927,000;11496,000;    0,000
 410,24;59674,000; 9873,000;    0,000
 410,53;56111,000; 8962,000;    0,000
 410,82;52515,000; 7956,000;    0,000
 411,11;47332,000; 7008,000;    0,000
 411,39;41412,000; 6189,000;    0,000
 411,68;35183,000; 4926,000;    0,000
 411,97;29038,000; 3552,000;    0,000
 412,26;22774,000; 3121,000;    0,000
 412,55;18495,000; 3057,000;    0,000
 412,83;16390,000; 3416,000;    0,000
 413,12;15548,000; 2552,000;    0,000
 413,41;14613,000; 2621,000;    0,000
 413,70;14962,000; 3321,000;    0,000
 413,99;13006,000; 2190,000;    0,000
 414,27;12556,000; 2051,000;    0,000
 414,56;12128,000; 2295,000;    0,000
 414,85;11541,000; 2483,000;    0,000
 415,14;10527,000; 2062,000;    0,000
 415,43;10224,000; 1646,000;    0,000
 415,71; 9196,000; 1325,000;    0,000
 416,00; 8827,000; 1612,000;    0,000
 416,29; 8807,000; 1599,000;    0,000
 416,58; 8560,000; 1686,000;    0,000
 416,87; 8432,000; 1708,000;    0,000
 417,15; 7795,000; 1217,000;    0,000
 417,44; 7652,000; 1707,000;    0,000
 417,73; 7988,000; 1774,000;    0,000
 418,02; 7648,000; 1850,000;    0,000
 418,30; 7003,000; 1393,000;    0,000
 418,59; 6848,000; 1702,000;    0,000
 418,88; 7027,000; 1614,000;    0,000
 419,17; 6374,000; 1292,000;    0,000
 419,45; 6403,000; 1342,000;    0,000
 419,74; 6082,000; 1466,000;    0,000
 420,03; 5657,000;  888,000;    0,000
 420,32; 5692,000; 1298,000;    0,000
 420,60; 5798,000; 1633,000;    0,000
 420,89; 5436,000; 1336,000;    0,000
 421,18; 5690,000; 1224,000;    0,000
 421,47; 4889,000;  915,000;    0,000
 421,75; 4677,000;  798,000;    0,000
 422,04; 4877,000;  988,000;    0,000
 422,33; 4719,000;  919,000;    0,000
 422,62; 4657,000; 1261,000;    0,000
 422,90; 4389,000;  868,000;    0,000
 423,19; 4099,000;  868,000;    0,000
 423,48; 4151,000;  953,000;    0,000
 423,77; 4078,000;  989,000;    0,000
 424,05; 3877,000;  771,000;    0,000
 424,34; 4019,000;  777,000;    0,000
 424,63; 4262,000; 1289,000;    0,000
 424,91; 3906,000; 1252,000;    0,000
 425,20; 3614,000;  825,000;    0,000
 425,49; 3653,000; 1191,000;    0,000
 425,78; 4098,000; 1265,000;    0,000
 426,06; 3677,000;  972,000;    0,000
 426,35; 4478,000; 1885,000;    0,000
 426,64; 3707,000; 1272,000;    0,000
 426,92; 3957,000; 1358,000;    0,000
 427,21; 3073,000;  772,000;    0,000
 427,50; 3091,000;  471,000;    0,000
 427,78; 3017,000;  580,000;    0,000
 428,07;11256,000;10971,000;    0,000
 428,36; 2789,000;  696,000;    0,000
 428,65; 4033,000; 1755,000;    0,000
 428,93; 4060,000; 1399,000;    0,000
 429,22; 5559,000; 2217,000;    0,000
 429,51; 6556,000; 2177,000;    0,000
 429,79; 8085,000; 2359,000;    0,000
 430,08;10175,000; 2793,000;    0,000
 430,37;11809,000; 3226,000;    0,000
 430,65;13532,000; 3038,000;    0,000
 430,94;15521,000; 3643,000;    0,000
 431,23;16551,000; 3501,000;    0,000
 431,51;17334,000; 3635,000;    0,000
 431,80;18641,000; 3812,000;    0,000
 432,09;19461,000; 3784,000;    0,000
 432,37;19649,000; 4191,000;    0,000
 432,66;20596,000; 4093,000;    0,000
 432,95;20691,000; 3871,000;    0,000
 433,23;21607,000; 4511,000;    0,000
 433,52;21345,000; 4259,000;    0,000
 433,81;21587,000; 4230,000;    0,000
 434,09;22264,000; 4322,000;    0,000
 434,38;22026,000; 4106,000;    0,000
 434,66;22194,000; 4497,000;    0,000
 434,95;22463,000; 4346,000;    0,000
 435,24;21814,000; 4354,000;    0,000
 435,52;21981,000; 4004,000;    0,000
 435,81;20837,000; 3892,000;    0,000
 436,10;21980,000; 4531,000;    0,000
 436,38;22076,000; 4278,000;    0,000
 436,67;22300,000; 4196,000;    0,000
 436,95;21533,000; 4319,000;    0,000
 437,24;21669,000; 4133,000;    0,000
 437,53;21590,000; 3687,000;    0,000
 437,81;22351,000; 4544,000;    0,000
 438,10;22220,000; 4729,000;    0,000
 438,39;22689,000; 3826,000;    0,000
 438,67;22461,000; 3878,000;    0,000
 438,96;22678,000; 4744,000;    0,000
 439,24;21774,000; 4235,000;    0,000
 439,53;21565,000; 4443,000;    0,000
 439,82;20791,000; 3668,000;    0,000
 440,10;20531,000; 4050,000;    0,000
 440,39;19607,000; 3995,000;    0,000
 440,67;19208,000; 3706,000;    0,000
 440,96;18233,000; 3703,000;    0,000
 441,25;18518,000; 3713,000;    0,000
 441,53;16694,000; 3424,000;    0,000
 441,82;14914,000; 2410,000;    0,000
 442,10;13102,000; 2274,000;    0,000
 442,39;11571,000; 1444,000;    0,000
 442,67;12121,000; 4458,000;    0,000
 442,96; 7826,000; 1101,000;    0,000
 443,25; 5859,000;  738,000;    0,000
 443,53; 5204,000; 1578,000;    0,000
 443,82; 3120,000;  791,000;    0,000
 444,10; 3097,000; 1148,000;    0,000
 444,39; 2837,000; 1098,000;    0,000
 444,67; 3370,000; 1066,000;    0,000
 444,96; 2358,000;  674,000;    0,000
 445,24; 2819,000; 1002,000;    0,000
 445,53; 2835,000;  837,000;    0,000
 445,82; 3479,000; 1072,000;    0,000
 446,10; 2935,000;  884,000;    0,000
 446,39; 2980,000;  670,000;    0,000
 446,67; 3042,000;  810,000;    0,000
 446,96; 2952,000;  727,000;    0,000
 447,24; 2638,000;  677,000;    0,000
 447,53; 2878,000;  749,000;    0,000
 447,81; 2692,000;  766,000;    0,000
 448,10; 3252,000;  990,000;    0,000
 448,38; 2782,000;  573,000;    0,000
 448,67; 3440,000; 1209,000;    0,000
 448,95; 2921,000; 1076,000;    0,000
 449,24; 3505,000; 1090,000;    0,000
 449,53; 3316,000;  990,000;    0,000
 449,81; 2958,000;  561,000;    0,000
 450,10; 2760,000;  480,000;    0,000
 450,38; 3221,000;  743,000;    0,000
 450,67; 3763,000; 1212,000;    0,000
 450,95; 3323,000;  890,000;    0,000
 451,24; 2971,000;  478,000;    0,000
 451,52; 3461,000;  717,000;    0,000
 451,81; 3543,000;  999,000;    0,000
 452,09; 3648,000; 1007,000;    0,000
 452,38; 3692,000; 1098,000;    0,000
 452,66; 3592,000;  852,000;    0,000
 452,95; 3429,000;  938,000;    0,000
 453,23; 4148,000; 1266,000;    0,000
 453,52; 3912,000; 1055,000;    0,000
 453,80; 4297,000; 1298,000;    0,000
 454,08; 4082,000; 1019,000;    0,000
 454,37; 3787,000;  832,000;    0,000
 454,65; 3682,000;  906,000;    0,000
 454,94; 4285,000; 1042,000;    0,000
 455,22; 3631,000;  650,000;    0,000
 455,51; 3834,000;  664,000;    0,000
 455,79; 4446,000; 1497,000;    0,000
 456,08; 4540,000; 1360,000;    0,000
 456,36; 4741,000; 1266,000;    0,000
 456,65; 4388,000; 1088,000;    0,000
 456,93; 4023,000;  871,000;    0,000
 457,22; 4154,000;  715,000;    0,000
 457,50; 4202,000;  671,000;    0,000
 457,79; 4553,000;  772,000;    0,000
 458,07; 4860,000; 1381,000;    0,000
 458,35; 4824,000;  832,000;    0,000
 458,64; 4657,000;  905,000;    0,000
 458,92; 5288,000; 1508,000;    0,000
 459,21; 4843,000;  919,000;    0,000
 459,49; 5049,000;  909,000;    0,000
 459,78; 5114,000;  975,000;    0,000
 460,06; 4955,000;  921,000;    0,000
 460,34; 5020,000;  777,000;    0,000
 460,63; 5178,000;  756,000;    0,000
 460,91; 5171,000;  756,000;    0,000
 461,20; 5762,000;  910,000;    0,000
 461,48; 5492,000; 1030,000;    0,000
 461,77; 5661,000;  895,000;    0,000
 462,05; 5947,000;  991,000;    0,000
 462,33; 6316,000; 1043,000;    0,000
 462,62; 5933,000; 1186,000;    0,000
 462,90; 5947,000;  886,000;    0,000
 463,19; 6145,000; 1247,000;    0,000
 463,47; 6412,000;  992,000;    0,000
 463,75; 6500,000; 1375,000;    0,000
 464,04; 6913,000; 1000,000;    0,000
 464,32; 6692,000;  832,000;    0,000
 464,61; 7007,000; 1248,000;    0,000
 464,89; 6980,000; 1101,000;    0,000
 465,17; 7673,000; 1514,000;    0,000
 465,46; 7561,000; 1159,000;    0,000
 465,74; 7255,000;  683,000;    0,000
 466,03; 7088,000;  963,000;    0,000
 466,31; 7619,000;  833,000;    0,000
 466,59; 8345,000; 1150,000;    0,000
 466,88; 8385,000;  912,000;    0,000
 467,16; 8168,000; 1179,000;    0,000
 467,44; 8335,000;  988,000;    0,000
 467,73; 8288,000;  798,000;    0,000
 468,01; 9385,000; 1138,000;    0,000
 468,30; 9375,000; 1189,000;    0,000
 468,58; 9165,000; 1308,000;    0,000
 468,86; 9296,000;  815,000;    0,000
 469,15; 9799,000; 1082,000;    0,000
 469,43; 9331,000;  674,000;    0,000
 469,71;10218,000; 1095,000;    0,000
 470,00; 9623,000;  781,000;    0,000
 470,28;10343,000;  800,000;    0,000
 470,56;10890,000; 1276,000;    0,000
 470,85;11182,000; 1232,000;    0,000
 471,13;10729,000;  777,000;    0,000
 471,41;11468,000;  791,000;    0,000
 471,70;11726,000; 1107,000;    0,000
 471,98;12534,000; 1945,000;    0,000
 472,26;12009,000; 1105,000;    0,000
 472,55;12253,000;  649,000;    0,000
 472,83;12518,000;  919,000;    0,000
 473,11;13196,000; 1236,000;    0,000
 473,40;12887,000; 1188,000;    0,000
 473,68;14233,000; 1407,000;    0,000
 473,96;13705,000; 1298,000;    0,000
 474,25;14212,000;  930,000;    0,000
 474,53;14044,000;  845,000;    0,000
 474,81;15196,000; 1171,000;    0,000
 475,10;14937,000; 1097,000;    0,000
 475,38;15751,000; 1476,000;    0,000
 475,66;15446,000; 1098,000;    0,000
 475,94;15979,000; 1195,000;    0,000
 476,23;17468,000; 1903,000;    0,000
 476,51;16875,000; 1219,000;    0,000
 476,79;16962,000;  937,000;    0,000
 477,08;17726,000; 1346,000;    0,000
 477,36;18074,000; 1097,000;    0,000
 477,64;18831,000; 1162,000;    0,000
 477,92;19150,000; 1203,000;    0,000
 478,21;19232,000;  647,000;    0,000
 478,49;20067,000; 1564,000;    0,000
 478,77;20474,000;  985,000;    0,000
 479,06;20210,000; 1000,000;    0,000
 479,34;20882,000;  918,000;    0,000
 479,62;21130,000; 1015,000;    0,000
 479,90;21738,000; 1047,000;    0,000
 480,19;22815,000; 1490,000;    0,000
 480,47;22224,000; 1039,000;    0,000
 480,75;22797,000;  984,000;    0,000
 481,03;23730,000; 1256,000;    0,000
 481,32;23827,000; 1199,000;    0,000
 481,60;24250,000; 1018,000;    0,000
 481,88;25104,000; 1195,000;    0,000
 482,16;25253,000;  869,000;    0,000
 482,45;25419,000;  675,000;    0,000
 482,73;26772,000; 1188,000;    0,000
 483,01;27473,000; 1472,000;    0,000
 483,29;27847,000; 1062,000;    0,000
 483,58;28805,000; 1904,000;    0,000
 483,86;29056,000; 1244,000;    0,000
 484,14;28750,000; 1077,000;    0,000
 484,42;29007,000; 1037,000;    0,000
 484,71;30208,000; 1262,000;    0,000
 484,99;30941,000; 1169,000;    0,000
 485,27;30860,000;  885,000;    0,000
 485,55;32206,000; 1219,000;    0,000
 485,83;32338,000; 1028,000;    0,000
 486,12;32321,000; 1034,000;    0,000
 486,40;32755,000; 1328,000;    0,000
 486,68;34523,000; 1407,000;    0,000
 486,96;34509,000;  969,000;    0,000
 487,24;35518,000;  967,000;    0,000
 487,53;35481,000;  886,000;    0,000
 487,81;36356,000; 1263,000;    0,000
 488,09;36472,000; 1023,000;    0,000
 488,37;37405,000; 1573,000;    0,000
 488,65;38015,000; 1241,000;    0,000
 488,94;38549,000; 1244,000;    0,000
 489,22;38684,000; 1003,000;    0,000
 489,50;39431,000; 1590,000;    0,000
 489,78;39679,000; 1072,000;    0,000
 490,06;40954,000; 1185,000;    0,000
 490,34;40357,000;  807,000;    0,000
 490,63;41645,000; 1068,000;    0,000
 490,91;41490,000;  798,000;    0,000
 491,19;43042,000; 1047,000;    0,000
 491,47;43055,000; 1022,000;    0,000
 491,75;43691,000; 1108,000;    0,000
 492,04;43979,000; 1019,000;    0,000
 492,32;44932,000; 1572,000;    0,000
 492,60;44999,000; 1277,000;    0,000
 492,88;44800,000;  546,000;    0,000
 493,16;45476,000; 1183,000;    0,000
 493,44;46562,000; 1190,000;    0,000
 493,72;46470,000; 1215,000;    0,000
 494,01;47498,000; 1253,000;    0,000
 494,29;47104,000;  670,000;    0,000
 494,57;47607,000;  978,000;    0,000
 494,85;48045,000; 1096,000;    0,000
 495,13;49280,000; 1000,000;    0,000
 495,41;49241,000; 1100,000;    0,000
 495,69;49607,000;  984,000;    0,000
 495,98;50302,000; 1656,000;    0,000
 496,26;50763,000; 1577,000;    0,000
 496,54;51266,000;  881,000;    0,000
 496,82;51425,000; 1181,000;    0,000
 497,10;51030,000;  793,000;    0,000
 497,38;52140,000; 1119,000;    0,000
 497,66;51530,000;  570,000;    0,000
 497,94;52496,000;  979,000;    0,000
 498,22;53879,000; 1214,000;    0,000
 498,51;53372,000;  931,000;    0,000
 498,79;53088,000; 1581,000;    0,000
 499,07;54076,000;  894,000;    0,000
 499,35;53518,000;  727,000;    0,000
 499,63;54002,000;  880,000;    0,000
 499,91;54136,000; 1169,000;    0,000
 500,19;54667,000; 1241,000;    0,000
 500,47;53496,000;  728,000;    0,000
 500,75;54820,000; 1050,000;    0,000
 501,03;54281,000; 1307,000;    0,000
 501,31;55565,000; 1267,000;    0,000
 501,60;54946,000; 1486,000;    0,000
 501,88;54605,000;  881,000;    0,000
 502,16;55340,000; 1204,000;    0,000
 502,44;56037,000; 1392,000;    0,000
 502,72;54973,000; 1057,000;    0,000
 503,00;56062,000; 1416,000;    0,000
 503,28;55341,000;  914,000;    0,000
 503,56;55279,000;  821,000;    0,000
 503,84;54583,000; 1049,000;    0,000
 504,12;55431,000; 1353,000;    0,000
 504,40;55241,000; 1011,000;    0,000
 504,68;54467,000;  800,000;    0,000
 504,96;54682,000;  796,000;    0,000
 505,24;55516,000; 1769,000;    0,000
 505,52;55276,000; 1142,000;    0,000
 505,80;55491,000; 1290,000;    0,000
 506,08;54610,000; 1035,000;    0,000
 506,36;54200,000; 1397,000;    0,000
 506,65;55244,000; 1388,000;    0,000
 506,93;53525,000; 1568,000;    0,000
 507,21;54006,000; 1160,000;    0,000
 507,49;53960,000; 1362,000;    0,000
 507,77;53372,000; 1248,000;    0,000
 508,05;54515,000; 1345,000;    0,000
 508,33;53173,000; 1441,000;    0,000
 508,61;53186,000; 1199,000;    0,000
 508,89;52068,000; 1634,000;    0,000
 509,17;51939,000; 1345,000;    0,000
 509,45;51680,000; 1494,000;    0,000
 509,73;52009,000; 1355,000;    0,000
 510,01;50783,000; 1561,000;    0,000
 510,29;50313,000; 1762,000;    0,000
 510,57;51858,000; 1536,000;    0,000
 510,85;49699,000; 1862,000;    0,000
 511,13;50213,000; 1795,000;    0,000
 511,41;50130,000; 1925,000;    0,000
 511,69;49159,000; 2082,000;    0,000
 511,97;49096,000; 2019,000;    0,000
 512,25;48016,000; 2184,000;    0,000
 512,53;47133,000; 1794,000;    0,000
 512,81;47283,000; 2290,000;    0,000
 513,09;46654,000; 2336,000;    0,000
 513,37;45380,000; 1747,000;    0,000
 513,65;45497,000; 2511,000;    0,000
 513,93;45541,000; 2228,000;    0,000
 514,21;44844,000; 2416,000;    0,000
 514,48;43223,000; 2059,000;    0,000
 514,76;43743,000; 2942,000;    0,000
 515,04;42359,000; 2545,000;    0,000
 515,32;42661,000; 3095,000;    0,000
 515,60;41812,000; 2559,000;    0,000
 515,88;40976,000; 3136,000;    0,000
 516,16;40104,000; 2606,000;    0,000
 516,44;40528,000; 3081,000;    0,000
 516,72;39075,000; 3141,000;    0,000
 517,00;39539,000; 3828,000;    0,000
 517,28;38244,000; 3197,000;    0,000
 517,56;38593,000; 3820,000;    0,000
 517,84;37448,000; 3676,000;    0,000
 518,12;36778,000; 3803,000;    0,000
 518,40;36064,000; 3627,000;    0,000
 518,68;35561,000; 3749,000;    0,000
 518,96;35257,000; 3771,000;    0,000
 519,23;35083,000; 4397,000;    0,000
 519,51;34429,000; 4469,000;    0,000
 519,79;33309,000; 4456,000;    0,000
 520,07;33625,000; 5776,000;    0,000
 520,35;32165,000; 4760,000;    0,000
 520,63;31906,000; 5546,000;    0,000
 520,91;31253,000; 5251,000;    0,000
 521,19;30905,000; 5085,000;    0,000
 521,47;31181,000; 5583,000;    0,000
 521,75;29399,000; 5677,000;    0,000
 522,03;29464,000; 5938,000;    0,000
 522,30;28773,000; 6007,000;    0,000
 522,58;28073,000; 5977,000;    0,000
 522,86;27385,000; 6549,000;    0,000
 523,14;26810,000; 6339,000;    0,000
 523,42;25950,000; 6334,000;    0,000
 523,70;26257,000; 6814,000;    0,000
 523,98;25475,000; 7436,000;    0,000
 524,26;25371,000; 7677,000;    0,000
 524,54;24709,000; 8267,000;    0,000
 524,81;24168,000; 8256,000;    0,000
 525,09;23569,000; 8178,000;    0,000
 525,37;22978,000; 7717,000;    0,000
 525,65;22860,000; 8142,000;    0,000
 525,93;22191,000; 8888,000;    0,000
 526,21;21610,000; 8987,000;    0,000
 526,49;21339,000; 9278,000;    0,000
 526,76;20307,000; 9214,000;    0,000
 527,04;20283,000; 9938,000;    0,000
 527,32;19768,000; 9701,000;    0,000
 527,60;19438,000;10536,000;    0,000
 527,88;19086,000;10248,000;    0,000
 528,16;18794,000;10856,000;    0,000
 528,44;18280,000;11050,000;    0,000
 528,71;18365,000;11907,000;    0,000
 528,99;17379,000;11363,000;    0,000
 529,27;16900,000;11647,000;    0,000
 529,55;16739,000;12481,000;    0,000
 529,83;16807,000;12964,000;    0,000
 530,11;16079,000;13649,000;    0,000
 530,38;15400,000;13582,000;    0,000
 530,66;15304,000;13373,000;    0,000
 530,94;15044,000;13937,000;    0,000
 531,22;15282,000;14921,000;    0,000
 531,50;14464,000;15401,000;    0,000
 531,77;14094,000;15630,000;    0,000
 532,05;14633,000;15619,000;    0,000
 532,33;13958,000;15592,000;    0,000
 532,61;13462,000;15765,000;    0,000
 532,89;13092,000;17278,000;    0,000
 533,16;12732,000;17114,000;    0,000
 533,44;12751,000;17187,000;    0,000
 533,72;12286,000;18127,000;    0,000
 534,00;12181,000;18238,000;    0,000
 534,28;11575,000;18714,000;    0,000
 534,55;11872,000;18950,000;    0,000
 534,83;11646,000;19930,000;    0,000
 535,11;11707,000;20731,000;    0,000
 535,39;11413,000;21072,000;    0,000
 535,66;10726,000;21072,000;    0,000
 535,94;10979,000;21364,000;    0,000
 536,22;10713,000;21940,000;    0,000
 536,50;10380,000;22480,000;    0,000
 536,78; 9979,000;22709,000;    0,000
 537,05;10992,000;23687,000;    0,000
 537,33;10148,000;23579,000;    0,000
 537,61; 9617,000;24523,000;    0,000
 537,89; 9528,000;25001,000;    0,000
 538,16; 9550,000;25281,000;    0,000
 538,44; 9384,000;25983,000;    0,000
 538,72; 9297,000;27302,000;    0,000
 539,00; 9361,000;26819,000;    0,000
 539,27; 8823,000;28171,000;    0,000
 539,55; 8955,000;28236,000;    0,000
 539,83; 8451,000;29092,000;    0,000
 540,11; 8087,000;28720,000;    0,000
 540,38; 9255,000;30618,000;    0,000
 540,66; 8816,000;31415,000;    0,000
 540,94; 8476,000;30709,000;    0,000
 541,21; 8308,000;31581,000;    0,000
 541,49; 8200,000;31463,000;    0,000
 541,77; 8326,000;32646,000;    0,000
 542,05; 8487,000;33736,000;    0,000
 542,32; 8028,000;34120,000;    0,000
 542,60; 8379,000;35301,000;    0,000
 542,88; 7644,000;35213,000;    0,000
 543,15; 8154,000;35794,000;    0,000
 543,43; 7486,000;36443,000;    0,000
 543,71; 7997,000;37173,000;    0,000
 543,98; 7438,000;37700,000;    0,000
 544,26; 7627,000;38589,000;    0,000
 544,54; 7393,000;39366,000;    0,000
 544,82; 7544,000;39588,000;    0,000
 545,09; 7265,000;40032,000;    0,000
 545,37; 7282,000;40831,000;    0,000
 545,65; 7086,000;41062,000;    0,000
 545,92; 6977,000;41476,000;    0,000
 546,20; 6508,000;41717,000;    0,000
 546,48; 7323,000;42987,000;    0,000
 546,75; 7231,000;43555,000;    0,000
 547,03; 6652,000;43568,000;    0,000
 547,31; 6727,000;44163,000;    0,000
 547,58; 6669,000;44851,000;    0,000
 547,86; 6512,000;45553,000;    0,000
 548,14; 6626,000;46050,000;    0,000
 548,41; 5946,000;47173,000;    0,000
 548,69; 6576,000;47310,000;    0,000
 548,97; 6243,000;47961,000;    0,000
 549,24; 6263,000;48039,000;    0,000
 549,52; 6529,000;49120,000;    0,000
 549,80; 6212,000;49063,000;    0,000
 550,07; 5942,000;49890,000;    0,000
 550,35; 5844,000;49777,000;    0,000
 550,62; 5824,000;50421,000;    0,000
 550,90; 6191,000;51281,000;    0,000
 551,18; 5994,000;51315,000;    0,000
 551,45; 6284,000;52820,000;    0,000
 551,73; 5544,000;52194,000;    0,000
 552,01; 6063,000;53145,000;    0,000
 552,28; 5680,000;53432,000;    0,000
 552,56; 5812,000;53936,000;    0,000
 552,83; 5302,000;53919,000;    0,000
 553,11; 5649,000;54790,000;    0,000
 553,39; 6720,000;56254,000;    0,000
 553,66; 5569,000;55547,000;    0,000
 553,94; 5038,000;54985,000;    0,000
 554,22; 5526,000;56210,000;    0,000
 554,49; 5019,000;55416,000;    0,000
 554,77; 5193,000;56724,000;    0,000
 555,04; 5063,000;56291,000;    0,000
 555,32; 4712,000;56725,000;    0,000
 555,59; 5063,000;57306,000;    0,000
 555,87; 5664,000;57517,000;    0,000
 556,15; 4913,000;57863,000;    0,000
 556,42; 4990,000;57232,000;    0,000
 556,70; 4706,000;57520,000;    0,000
 556,97; 5268,000;57942,000;    0,000
 557,25; 4696,000;57428,000;    0,000
 557,53; 5429,000;58122,000;    0,000
 557,80; 4411,000;57741,000;    0,000
 558,08; 5272,000;58813,000;    0,000
 558,35; 4674,000;58584,000;    0,000
 558,63; 5145,000;58539,000;    0,000
 558,90; 5073,000;58924,000;    0,000
 559,18; 5424,000;58423,000;    0,000
 559,45; 4774,000;58098,000;    0,000
 559,73; 4986,000;58663,000;    0,000
 560,01; 4731,000;59019,000;    0,000
 560,28; 4363,000;58261,000;    0,000
 560,56; 4422,000;59041,000;    0,000
 560,83; 5438,000;58234,000;    0,000
 561,11; 4723,000;58589,000;    0,000
 561,38; 4652,000;58484,000;    0,000
 561,66; 4690,000;58334,000;    0,000
 561,93; 4796,000;57989,000;    0,000
 562,21; 4043,000;57480,000;    0,000
 562,48; 4742,000;58567,000;    0,000
 562,76; 5196,000;58147,000;    0,000
 563,03; 4926,000;57790,000;    0,000
 563,31; 5260,000;58248,000;    0,000
 563,58; 4654,000;57371,000;    0,000
 563,86; 4561,000;56991,000;    0,000
 564,13; 4913,000;57768,000;    0,000
 564,41; 4315,000;56078,000;    0,000
 564,68; 4925,000;55889,000;    0,000
 564,96; 4531,000;55503,000;    0,000
 565,23; 4791,000;56270,000;    0,000
 565,51; 4599,000;54991,000;    0,000
 565,78; 4800,000;55314,000;    0,000
 566,06; 4197,000;54666,000;    0,000
 566,33; 5400,000;55070,000;    0,000
 566,61; 4874,000;54876,000;    0,000
 566,88; 4574,000;54222,000;    0,000
 567,16; 4864,000;53574,000;    0,000
 567,43; 4807,000;53802,000;    0,000
 567,71; 4434,000;52192,000;    0,000
 567,98; 4600,000;52451,000;    0,000
 568,26; 4617,000;51768,000;    0,000
 568,53; 4821,000;51500,000;    0,000
 568,81; 4302,000;51300,000;    0,000
 569,08; 4222,000;49963,000;    0,000
 569,36; 4220,000;49381,000;    0,000
 569,63; 4007,000;49107,000;    0,000
 569,91; 4205,000;48993,000;    0,000
 570,18; 4312,000;48793,000;    0,000
 570,45; 4331,000;48175,000;    0,000
 570,73; 4151,000;47853,000;    0,000
 571,00; 4374,000;46915,000;    0,000
 571,28; 4411,000;46313,000;    0,000
 571,55; 4594,000;47116,000;    0,000
 571,83; 4688,000;46390,000;    0,000
 572,10; 4370,000;45600,000;    0,000
 572,38; 4616,000;45434,000;    0,000
 572,65; 4320,000;44038,000;    0,000
 572,92; 4504,000;43897,000;    0,000
 573,20; 4854,000;43456,000;    0,000
 573,47; 4636,000;42643,000;    0,000
 573,75; 4402,000;41350,000;    0,000
 574,02; 4697,000;41856,000;    0,000
 574,29; 4454,000;41610,000;    0,000
 574,57; 4502,000;39789,000;    0,000
 574,84; 4480,000;40617,000;    0,000
 575,12; 4508,000;39762,000;    0,000
 575,39; 4313,000;39221,000;    0,000
 575,66; 4440,000;38302,000;    0,000
 575,94; 4529,000;38208,000;    0,000
 576,21; 4393,000;36707,000;    0,000
 576,49; 4600,000;37170,000;    0,000
 576,76; 4637,000;36167,000;    0,000
 577,03; 4184,000;35080,000;    0,000
 577,31; 4535,000;35565,000;    0,000
 577,58; 4369,000;34755,000;    0,000
 577,86; 4755,000;34410,000;    0,000
 578,13; 4425,000;33671,000;    0,000
 578,40; 4623,000;34099,000;    0,000
 578,68; 4398,000;32372,000;    0,000
 578,95; 4823,000;32100,000;    0,000
 579,22; 4896,000;32474,000;    0,000
 579,50; 4417,000;30908,000;    0,000
 579,77; 4072,000;30321,000;    0,000
 580,05; 4318,000;30637,000;    0,000
 580,32; 4360,000;29683,000;    0,000
 580,59; 4617,000;29998,000;    0,000
 580,87; 4341,000;28549,000;    0,000
 581,14; 4639,000;28457,000;    0,000
 581,41; 4329,000;27574,000;    0,000
 581,69; 4561,000;27204,000;    0,000
 581,96; 4147,000;27366,000;    0,000
 582,23; 4687,000;26801,000;    0,000
 582,51; 4246,000;26236,000;    0,000
 582,78; 5451,000;26658,000;    0,000
 583,05; 4125,000;24697,000;    0,000
 583,33; 4734,000;24742,000;    0,000
 583,60; 3976,000;23914,000;    0,000
 583,87; 4538,000;23819,000;    0,000
 584,15; 4342,000;24000,000;    0,000
 584,42; 4521,000;22679,000;    0,000
 584,69; 4793,000;23158,000;    0,000
 584,96; 4297,000;21252,000;    0,000
 585,24; 4191,000;21659,000;    0,000
 585,51; 4442,000;20901,000;    0,000
 585,78; 3971,000;20193,000;    0,000
 586,06; 4459,000;20858,000;    0,000
 586,33; 4221,000;20471,000;    0,000
 586,60; 4428,000;19536,000;    0,000
 586,88; 3869,000;19434,000;    0,000
 587,15; 4438,000;19385,000;    0,000
 587,42; 3852,000;18312,000;    0,000
 587,69; 4295,000;18042,000;    0,000
 587,97; 4292,000;18361,000;    0,000
 588,24; 4545,000;18130,000;    0,000
 588,51; 3983,000;17276,000;    0,000
 588,79; 4531,000;17153,000;    0,000
 589,06; 4626,000;16922,000;    0,000
 589,33; 4345,000;16123,000;    0,000
 589,60; 3911,000;16020,000;    0,000
 589,88; 4196,000;16053,000;    0,000
 590,15; 4534,000;16054,000;    0,000
 590,42; 4176,000;15120,000;    0,000
 590,69; 4233,000;14831,000;    0,000
 590,97; 4462,000;14593,000;    0,000
 591,24; 3918,000;13726,000;    0,000
 591,51; 4244,000;13986,000;    0,000
 591,78; 4058,000;13757,000;    0,000
 592,06; 4615,000;13626,000;    0,000
 592,33; 3969,000;12484,000;    0,000
 592,60; 4128,000;13090,000;    0,000
 592,87; 3642,000;11836,000;    0,000
 593,15; 4452,000;12677,000;    0,000
 593,42; 4442,000;12896,000;    0,000
 593,69; 4345,000;12169,000;    0,000
 593,96; 4036,000;11386,000;    0,000
 594,23; 4740,000;12067,000;    0,000
 594,51; 3408,000;10434,000;    0,000
 594,78; 3998,000;11027,000;    0,000
 595,05; 3667,000;10304,000;    0,000
 595,32; 4041,000;10810,000;    0,000
 595,59; 3648,000;10055,000;    0,000
 595,87; 3767,000; 9682,000;    0,000
 596,14; 3551,000; 9587,000;    0,000
 596,41; 4244,000; 9953,000;    0,000
 596,68; 3575,000; 8896,000;    0,000
 596,95; 4021,000; 9110,000;    0,000
 597,23; 3540,000; 8842,000;    0,000
 597,50; 3858,000; 8770,000;    0,000
 597,77; 4542,000; 9422,000;    0,000
 598,04; 3756,000; 8385,000;    0,000
 598,31; 4203,000; 8634,000;    0,000
 598,59; 4171,000; 8264,000;    0,000
 598,86; 3741,000; 8246,000;    0,000
 599,13; 3450,000; 7076,000;    0,000
 599,40; 4104,000; 8034,000;    0,000
 599,67; 3574,000; 7332,000;    0,000
 599,94; 3638,000; 6949,000;    0,000
 600,22; 4295,000; 7394,000;    0,000
 600,49; 3469,000; 6533,000;    0,000
 600,76; 3707,000; 6472,000;    0,000
 601,03; 3125,000; 6293,000;    0,000
 601,30; 3872,000; 6445,000;    0,000
 601,57; 3764,000; 6366,000;    0,000
 601,84; 4183,000; 7195,000;    0,000
 602,12; 3282,000; 5817,000;    0,000
 602,39; 3737,000; 6101,000;    0,000
 602,66; 4004,000; 6090,000;    0,000
 602,93; 3953,000; 5922,000;    0,000
 603,20; 3810,000; 5601,000;    0,000
 603,47; 3622,000; 5407,000;    0,000
 603,74; 3435,000; 5064,000;    0,000
 604,02; 4121,000; 5534,000;    0,000
 604,29; 3615,000; 5308,000;    0,000
 604,56; 3376,000; 4531,000;    0,000
 604,83; 3255,000; 4773,000;    0,000
 605,10; 3610,000; 4687,000;    0,000
 605,37; 3683,000; 4610,000;    0,000
 605,64; 3840,000; 4767,000;    0,000
 605,91; 3582,000; 4597,000;    0,000
 606,18; 3318,000; 4053,000;    0,000
 606,45; 3365,000; 3789,000;    0,000
 606,73; 3892,000; 4230,000;    0,000
 607,00; 3478,000; 3867,000;    0,000
 607,27; 3334,000; 3567,000;    0,000
 607,54; 3715,000; 3926,000;    0,000
 607,81; 4165,000; 4069,000;    0,000
 608,08; 3220,000; 3474,000;    0,000
 608,35; 4096,000; 3754,000;    0,000
 608,62; 3271,000; 3243,000;    0,000
 608,89; 3882,000; 3472,000;    0,000
 609,16; 4035,000; 3722,000;    0,000
 609,43; 4287,000; 4008,000;    0,000
 609,70; 3834,000; 3498,000;    0,000
 609,97; 3446,000; 2796,000;    0,000
 610,25; 3515,000; 3105,000;    0,000
 610,52; 3500,000; 2654,000;    0,000
 610,79; 3166,000; 2499,000;    0,000
 611,06; 3754,000; 2850,000;    0,000
 611,33; 3197,000; 2639,000;    0,000
 611,60; 3852,000; 3033,000;    0,000
 611,87; 3402,000; 2552,000;    0,000
 612,14; 3890,000; 2518,000;    0,000
 612,41; 3339,000; 2304,000;    0,000
 612,68; 3651,000; 2528,000;    0,000
 612,95; 3338,000; 2372,000;    0,000
 613,22; 4324,000; 2973,000;    0,000
 613,49; 3241,000; 2096,000;    0,000
 613,76; 3626,000; 2197,000;    0,000
 614,03; 3252,000; 1919,000;    0,000
 614,30; 4024,000; 2609,000;    0,000
 614,57; 3354,000; 2096,000;    0,000
 614,84; 3419,000; 2063,000;    0,000
 615,11; 3389,000; 2084,000;    0,000
 615,38; 3267,000; 2004,000;    0,000
 615,65; 3670,000; 2186,000;    0,000
 615,92; 3574,000; 1951,000;    0,000
 616,19; 3148,000; 2017,000;    0,000
 616,46; 3435,000; 1909,000;    0,000
 616,73; 3318,000; 2099,000;    0,000
 617,00; 3650,000; 2336,000;    0,000
 617,27; 3543,000; 2001,000;    0,000
 617,54; 3575,000; 2021,000;    0,000
 617,81; 3078,000; 1678,000;    0,000
 618,08; 3452,000; 1770,000;    0,000
 618,35; 3081,000; 1531,000;    0,000
 618,62; 3452,000; 2073,000;    0,000
 618,89; 3410,000; 1594,000;    0,000
 619,16; 2988,000; 1172,000;    0,000
 619,43; 2946,000; 1380,000;    0,000
 619,70; 3161,000; 1268,000;    0,000
 619,97; 3342,000; 1776,000;    0,000
 620,24; 3762,000; 2004,000;    0,000
 620,51; 3246,000; 1163,000;    0,000
 620,78; 3414,000; 1283,000;    0,000
 621,05; 2975,000; 1443,000;    0,000
 621,32; 3652,000; 1453,000;    0,000
 621,59; 2913,000; 1243,000;    0,000
 621,86; 3952,000; 1914,000;    0,000
 622,12; 3731,000; 1961,000;    0,000
 622,39; 3480,000; 1446,000;    0,000
 622,66; 3066,000; 1118,000;    0,000
 622,93; 2979,000;  870,000;    0,000
 623,20; 2940,000;  946,000;    0,000
 623,47; 3188,000;  905,000;    0,000
 623,74; 3034,000; 1014,000;    0,000
 624,01; 3296,000;  852,000;    0,000
 624,28; 3110,000; 1048,000;    0,000
 624,55; 3143,000;  806,000;    0,000
 624,82; 3232,000;  956,000;    0,000
 625,09; 3386,000;  988,000;    0,000
 625,36; 3304,000; 1091,000;    0,000
 625,62; 3462,000; 1283,000;    0,000
 625,89; 2916,000;  764,000;    0,000
 626,16; 3113,000;  833,000;    0,000
 626,43; 2879,000;  803,000;    0,000
 626,70; 3521,000; 1198,000;    0,000
 626,97; 3219,000;  847,000;    0,000
 627,24; 3371,000;  973,000;    0,000
 627,51; 2585,000;  442,000;    0,000
 627,78; 3228,000;  638,000;    0,000
 628,04; 3129,000; 1074,000;    0,000
 628,31; 3158,000;  742,000;    0,000
 628,58; 3536,000; 1304,000;    0,000
 628,85; 2643,000;  472,000;    0,000
 629,12; 2886,000;  904,000;    0,000
 629,39; 2967,000;  622,000;    0,000
 629,66; 3581,000; 1332,000;    0,000
 629,93; 3269,000;  831,000;    0,000
 630,19; 2880,000;  403,000;    0,000
 630,46; 3240,000;  525,000;    0,000
 630,73; 2910,000;  700,000;    0,000
 631,00; 3105,000;  693,000;    0,000
 631,27; 2911,000;  737,000;    0,000
 631,54; 2727,000;  414,000;    0,000
 631,80; 2940,000;  548,000;    0,000
 632,07; 2860,000;  401,000;    0,000
 632,34; 2659,000;  558,000;    0,000
 632,61; 2916,000;  543,000;    0,000
 632,88; 2782,000;  392,000;    0,000
 633,15; 3011,000;  565,000;    0,000
 633,41; 3096,000;  736,000;    0,000
 633,68; 2960,000;  626,000;    0,000
 633,95; 2590,000;  433,000;    0,000
 634,22; 2852,000;  353,000;    0,000
 634,49; 2638,000;  326,000;    0,000
 634,76; 3629,000; 1167,000;    0,000
 635,02; 2590,000;  446,000;    0,000
 635,29; 2926,000;  567,000;    0,000
 635,56; 2910,000;  464,000;    0,000
 635,83; 3402,000;  898,000;    0,000
 636,10; 2699,000;  233,000;    0,000
 636,36; 3146,000;  724,000;    0,000
 636,63; 2819,000;  301,000;    0,000
 636,90; 3036,000;  773,000;    0,000
 637,17; 2909,000;  230,000;    0,000
 637,43; 2692,000;  199,000;    0,000
 637,70; 3349,000; 1135,000;    0,000
 637,97; 3700,000; 1259,000;    0,000
 638,24; 3404,000;  972,000;    0,000
 638,51; 2909,000;  246,000;    0,000
 638,77; 3032,000;  531,000;    0,000
 639,04; 3771,000;  866,000;    0,000
 639,31; 3038,000;  393,000;    0,000
 639,58; 3143,000;  471,000;    0,000
 639,84; 3021,000;  582,000;    0,000
 640,11; 3413,000;  368,000;    0,000
 640,38; 3224,000;  368,000;    0,000
 640,65; 3810,000;  985,000;    0,000
 640,91; 3400,000;  609,000;    0,000
 641,18; 3257,000;  484,000;    0,000
 641,45; 3811,000;  993,000;    0,000
 641,72; 3625,000;  773,000;    0,000
 641,98; 3351,000;  528,000;    0,000
 642,25; 3645,000;  569,000;    0,000
 642,52; 3539,000;  531,000;    0,000
 642,78; 3308,000;  279,000;    0,000
 643,05; 3477,000;  602,000;    0,000
 643,32; 3864,000;  669,000;    0,000
 643,59; 3031,000;  244,000;    0,000
 643,85; 3714,000;  476,000;    0,000
 644,12; 3478,000;  653,000;    0,000
 644,39; 3671,000;  258,000;    0,000
 644,65; 3610,000;  538,000;    0,000
 644,92; 3434,000;  235,000;    0,000
 645,19; 3819,000;  519,000;    0,000
 645,46; 3998,000;  703,000;    0,000
 645,72; 3922,000;  644,000;    0,000
 645,99; 4150,000;  598,000;    0,000
 646,26; 3367,000;  113,000;    0,000
 646,52; 4328,000;  574,000;    0,000
 646,79; 3561,000;  217,000;    0,000
 647,06; 4296,000;  653,000;    0,000
 647,32; 3839,000;  466,000;    0,000
 647,59; 4764,000; 1007,000;    0,000
 647,86; 4638,000; 1024,000;    0,000
 648,12; 4405,000;  547,000;    0,000
 648,39; 3986,000;  604,000;    0,000
 648,66; 4588,000;  578,000;    0,000
 648,92; 3940,000;  237,000;    0,000
 649,19; 4888,000; 1025,000;    0,000
 649,46; 4445,000;  341,000;    0,000
 649,72; 4948,000; 1007,000;    0,000
 649,99; 4412,000;  402,000;    0,000
 650,26; 5055,000;  611,000;    0,000
 650,52; 4950,000;  806,000;    0,000
 650,79; 4765,000;  453,000;    0,000
 651,06; 4692,000;  849,000;    0,000
 651,32; 4601,000;  392,000;    0,000
 651,59; 4426,000;   85,000;    0,000
 651,85; 5086,000;  526,000;    0,000
 652,12; 4815,000;  424,000;    0,000
 652,39; 5163,000;  519,000;    0,000
 652,65; 5113,000;  579,000;    0,000
 652,92; 5628,000;  967,000;    0,000
 653,19; 5489,000;  852,000;    0,000
 653,45; 5510,000;  677,000;    0,000
 653,72; 5308,000;  659,000;    0,000
 653,98; 5693,000;  756,000;    0,000
 654,25; 6116,000; 1337,000;    0,000
 654,52; 6075,000; 1223,000;    0,000
 654,78; 5833,000; 1032,000;    0,000
 655,05; 6215,000; 1120,000;    0,000
 655,31; 6391,000; 1275,000;    0,000
 655,58; 6085,000;  761,000;    0,000
 655,85; 5910,000;  681,000;    0,000
 656,11; 6061,000;  613,000;    0,000
 656,38; 5988,000;  611,000;    0,000
 656,64; 5952,000;  542,000;    0,000
 656,91; 6567,000; 1120,000;    0,000
 657,18; 6422,000;  571,000;    0,000
 657,44; 6431,000;  482,000;    0,000
 657,71; 6435,000;  432,000;    0,000
 657,97; 6102,000;  608,000;    0,000
 658,24; 7052,000; 1125,000;    0,000
 658,50; 6985,000;  853,000;    0,000
 658,77; 6968,000; 1054,000;    0,000
 659,03; 6810,000;  777,000;    0,000
 659,30; 7440,000; 1209,000;    0,000
 659,57; 6866,000;  562,000;    0,000
 659,83; 6947,000;  573,000;    0,000
 660,10; 7052,000;  994,000;    0,000
 660,36; 7626,000;  747,000;    0,000
 660,63; 7472,000;  836,000;    0,000
 660,89; 7378,000;  582,000;    0,000
 661,16; 7388,000;  894,000;    0,000
 661,42; 8251,000; 1012,000;    0,000
 661,69; 7837,000;  841,000;    0,000
 661,95; 7521,000;  733,000;    0,000
 662,22; 7681,000;  612,000;    0,000
 662,48; 8459,000; 1048,000;    0,000
 662,75; 8138,000;  855,000;    0,000
 663,01; 8539,000; 1107,000;    0,000
 663,28; 8185,000;  972,000;    0,000
 663,54; 8491,000; 1025,000;    0,000
 663,81; 8362,000; 1005,000;    0,000
 664,07; 9088,000; 1194,000;    0,000
 664,34; 8810,000; 1365,000;    0,000
 664,60;11071,000; 3039,000;    0,000
 664,87; 8756,000;  894,000;    0,000
 665,13; 8994,000; 1071,000;    0,000
 665,40; 8952,000;  944,000;    0,000
 665,66; 9376,000;  763,000;    0,000
 665,93; 8914,000;  933,000;    0,000
 666,19;10037,000; 1824,000;    0,000
 666,46; 9643,000; 1375,000;    0,000
 666,72; 9971,000; 1385,000;    0,000
 666,99; 9304,000;  655,000;    0,000
 667,25; 9726,000; 1129,000;    0,000
 667,52; 9833,000; 1091,000;    0,000
 667,78; 9736,000;  762,000;    0,000
 668,05;10198,000; 1344,000;    0,000
 668,31;10137,000; 1198,000;    0,000
 668,57;10091,000; 1416,000;    0,000
 668,84;10789,000; 1686,000;    0,000
 669,10;10350,000; 1348,000;    0,000
 669,37;10056,000; 1169,000;    0,000
 669,63;10433,000; 1048,000;    0,000
 669,90;10566,000;  943,000;    0,000
 670,16;10453,000; 1442,000;    0,000
 670,43;10776,000; 1157,000;    0,000
 670,69;11266,000; 1800,000;    0,000
 670,95;10693,000;  993,000;    0,000
 671,22;10719,000; 1113,000;    0,000
 671,48;11233,000; 1256,000;    0,000
 671,75;10778,000; 1396,000;    0,000
 672,01;10748,000; 1173,000;    0,000
 672,28;10865,000; 1042,000;    0,000
 672,54;11584,000; 1051,000;    0,000
 672,80;11553,000; 1603,000;    0,000
 673,07;11782,000; 1241,000;    0,000
 673,33;11334,000; 1100,000;    0,000
 673,60;11249,000; 1222,000;    0,000
 673,86;11222,000; 1331,000;    0,000
 674,12;11863,000; 1454,000;    0,000
 674,39;12333,000; 1786,000;    0,000
 674,65;12082,000; 1363,000;    0,000
 674,91;11863,000; 1258,000;    0,000
 675,18;11944,000; 1120,000;    0,000
 675,44;12308,000; 1654,000;    0,000
 675,71;12229,000; 1314,000;    0,000
 675,97;12195,000; 1213,000;    0,000
 676,23;12894,000; 1344,000;    0,000
 676,50;12102,000; 1081,000;    0,000
 676,76;12747,000; 1286,000;    0,000
 677,02;12481,000;  986,000;    0,000
 677,29;12938,000; 1389,000;    0,000
 677,55;12171,000; 1243,000;    0,000
 677,81;12432,000; 1367,000;    0,000
 678,08;12624,000; 1174,000;    0,000
 678,34;12911,000; 1622,000;    0,000
 678,61;12823,000; 1064,000;    0,000
 678,87;13024,000; 1382,000;    0,000
 679,13;13100,000;  957,000;    0,000
 679,40;13103,000; 1342,000;    0,000
 679,66;13166,000; 1264,000;    0,000
 679,92;13352,000; 1195,000;    0,000
 680,18;13688,000; 1392,000;    0,000
 680,45;13501,000; 1463,000;    0,000
 680,71;13296,000; 1208,000;    0,000
 680,97;13074,000;  967,000;    0,000
 681,24;13264,000; 1171,000;    0,000
 681,50;14337,000; 2081,000;    0,000
 681,76;13849,000; 1433,000;    0,000
 682,03;14287,000; 1431,000;    0,000
 682,29;13811,000; 1003,000;    0,000
 682,55;13835,000; 1444,000;    0,000
 682,82;13889,000; 1362,000;    0,000
 683,08;14253,000; 1591,000;    0,000
 683,34;13900,000; 1237,000;    0,000
 683,60;14394,000; 1512,000;    0,000
 683,87;14232,000; 1557,000;    0,000
 684,13;15295,000; 1734,000;    0,000
 684,39;14469,000; 1433,000;    0,000
 684,66;14385,000; 1789,000;    0,000
 684,92;14191,000; 1443,000;    0,000
 685,18;14459,000; 1331,000;    0,000
 685,44;14908,000; 1762,000;    0,000
 685,71;14517,000; 1505,000;    0,000
 685,97;14651,000; 1726,000;    0,000
 686,23;15006,000; 1438,000;    0,000
 686,49;14506,000; 1381,000;    0,000
 686,76;15003,000; 1258,000;    0,000
 687,02;15141,000; 1354,000;    0,000
 687,28;14700,000; 1184,000;    0,000
 687,54;15325,000; 1316,000;    0,000
 687,81;15022,000; 1455,000;    0,000
 688,07;14710,000; 1284,000;    0,000
 688,33;15593,000; 1114,000;    0,000
 688,59;15638,000; 1583,000;    0,000
 688,86;15809,000; 1763,000;    0,000
 689,12;15499,000; 1357,000;    0,000
 689,38;16216,000; 1347,000;    0,000
 689,64;15241,000; 1388,000;    0,000
 689,90;15926,000; 1672,000;    0,000
 690,17;16005,000; 1853,000;    0,000
 690,43;15888,000; 1303,000;    0,000
 690,69;15588,000; 1241,000;    0,000
 690,95;16829,000; 1533,000;    0,000
 691,22;16657,000; 1789,000;    0,000
 691,48;16377,000; 1537,000;    0,000
 691,74;16108,000; 1387,000;    0,000
 692,00;16811,000; 1457,000;    0,000
 692,26;16643,000; 1682,000;    0,000
 692,52;17231,000; 1789,000;    0,000
 692,79;16505,000; 1496,000;    0,000
 693,05;17063,000; 1482,000;    0,000
 693,31;17386,000; 1702,000;    0,000
 693,57;17568,000; 1672,000;    0,000
 693,83;16896,000; 1460,000;    0,000
 694,10;17743,000; 1659,000;    0,000
 694,36;17374,000; 1882,000;    0,000
 694,62;17174,000; 1458,000;    0,000
 694,88;16986,000; 1651,000;    0,000
 695,14;18023,000; 2099,000;    0,000
 695,40;17392,000; 1553,000;    0,000
 695,67;17454,000; 1466,000;    0,000
 695,93;19179,000; 2628,000;    0,000
 696,19;18170,000; 2034,000;    0,000
 696,45;17776,000; 1813,000;    0,000
 696,71;17867,000; 2091,000;    0,000
 696,97;17167,000; 1504,000;    0,000
 697,23;17704,000; 1991,000;    0,000
 697,49;17861,000; 1660,000;    0,000
 697,76;17877,000; 1647,000;    0,000
 698,02;17930,000; 1849,000;    0,000
 698,28;17918,000; 1553,000;    0,000
 698,54;18018,000; 1759,000;    0,000
 698,80;18499,000; 1653,000;    0,000
 699,06;18069,000; 1805,000;    0,000
 699,32;18602,000; 1869,000;    0,000
 699,58;17947,000; 1498,000;    0,000
 699,85;18452,000; 1916,000;    0,000
 700,11;18172,000; 1494,000;    0,000
 700,37;18283,000; 1647,000;    0,000
 700,63;18333,000; 1990,000;    0,000
 700,89;19560,000; 1968,000;    0,000
 701,15;18952,000; 1943,000;    0,000
 701,41;19445,000; 1854,000;    0,000
 701,67;18916,000; 1617,000;    0,000
 701,93;19695,000; 1936,000;    0,000
 702,19;19216,000; 1895,000;    0,000
 702,45;19799,000; 1770,000;    0,000
 702,72;19891,000; 2182,000;    0,000
 702,98;20545,000; 2353,000;    0,000
 703,24;19674,000; 1777,000;    0,000
 703,50;20385,000; 2402,000;    0,000
 703,76;20136,000; 1928,000;    0,000
 704,02;20412,000; 2276,000;    0,000
 704,28;20107,000; 1610,000;    0,000
 704,54;20756,000; 2275,000;    0,000
 704,80;20049,000; 1726,000;    0,000
 705,06;20197,000; 2129,000;    0,000
 705,32;20644,000; 1853,000;    0,000
 705,58;20794,000; 2226,000;    0,000
 705,84;20416,000; 1865,000;    0,000
 706,10;20895,000; 2312,000;    0,000
 706,36;21187,000; 2994,000;    0,000
 706,62;21157,000; 2603,000;    0,000
 706,88;20579,000; 1914,000;    0,000
 707,14;21223,000; 2221,000;    0,000
 707,40;20938,000; 1721,000;    0,000
 707,66;20998,000; 1796,000;    0,000
 707,92;21269,000; 1997,000;    0,000
 708,18;21466,000; 1940,000;    0,000
 708,44;20740,000; 1530,000;    0,000
 708,70;21584,000; 1977,000;    0,000
 708,96;21125,000; 2219,000;    0,000
 709,22;22245,000; 2281,000;    0,000
 709,48;21357,000; 2227,000;    0,000
 709,74;21947,000; 2698,000;    0,000
 710,00;21718,000; 2192,000;    0,000
 710,26;21701,000; 1858,000;    0,000
 710,52;21015,000; 1566,000;    0,000
 710,78;21361,000; 1858,000;    0,000
 711,04;21654,000; 2040,000;    0,000
 711,30;21456,000; 1449,000;    0,000
 711,56;21241,000; 1758,000;    0,000
 711,82;21942,000; 2394,000;    0,000
 712,08;20711,000; 1452,000;    0,000
 712,34;21584,000; 2633,000;    0,000
 712,60;21904,000; 2734,000;    0,000
 712,86;21411,000; 2306,000;    0,000
 713,12;21563,000; 2352,000;    0,000
 713,38;20598,000; 1535,000;    0,000
 713,64;20318,000; 1774,000;    0,000
 713,90;20933,000; 1738,000;    0,000
 714,16;20780,000; 1646,000;    0,000
 714,42;20762,000; 1799,000;    0,000
 714,68;21237,000; 2275,000;    0,000
 714,94;21044,000; 2378,000;    0,000
 715,20;21127,000; 1936,000;    0,000
 715,45;20717,000; 1814,000;    0,000
 715,71;20491,000; 1979,000;    0,000
 715,97;20659,000; 1702,000;    0,000
 716,23;21276,000; 2300,000;    0,000
 716,49;21398,000; 2311,000;    0,000
 716,75;20623,000; 1566,000;    0,000
 717,01;21400,000; 2094,000;    0,000
 717,27;21272,000; 1644,000;    0,000
 717,53;22049,000; 2251,000;    0,000
 717,79;21461,000; 1599,000;    0,000
 718,05;22278,000; 2878,000;    0,000
 718,31;21040,000; 1592,000;    0,000
 718,56;21151,000; 1887,000;    0,000
 718,82;21029,000; 1847,000;    0,000
 719,08;21767,000; 1816,000;    0,000
 719,34;21453,000; 1324,000;    0,000
 719,60;22225,000; 1967,000;    0,000
 719,86;21316,000; 1651,000;    0,000
 720,12;21085,000; 1424,000;    0,000
 720,38;21844,000; 1749,000;    0,000
 720,63;22205,000; 2537,000;    0,000
 720,89;22243,000; 2445,000;    0,000
 721,15;22551,000; 2174,000;    0,000
 721,41;21921,000; 1509,000;    0,000
 721,67;22807,000; 1695,000;    0,000
 721,93;22581,000; 2046,000;    0,000
 722,19;22446,000; 1999,000;    0,000
 722,44;22656,000; 2024,000;    0,000
 722,70;22837,000; 1975,000;    0,000
 722,96;22448,000; 2057,000;    0,000
 723,22;23053,000; 1948,000;    0,000
 723,48;22979,000; 1729,000;    0,000
 723,74;23631,000; 2315,000;    0,000
 723,99;23789,000; 2253,000;    0,000
 724,25;24149,000; 2555,000;    0,000
 724,51;24677,000; 2325,000;    0,000
 724,77;24310,000; 2125,000;    0,000
 725,03;24506,000; 2249,000;    0,000
 725,29;24743,000; 1923,000;    0,000
 725,54;25291,000; 2259,000;    0,000
 725,80;25743,000; 2285,000;    0,000
 726,06;24897,000; 1900,000;    0,000
 726,32;25172,000; 1833,000;    0,000
 726,58;25694,000; 2285,000;    0,000
 726,83;26074,000; 2360,000;    0,000
 727,09;26680,000; 2354,000;    0,000
 727,35;25791,000; 2205,000;    0,000
 727,61;25958,000; 2008,000;    0,000
 727,87;27520,000; 2109,000;    0,000
 728,12;26775,000; 2389,000;    0,000
 728,38;27803,000; 2440,000;    0,000
 728,64;27248,000; 2580,000;    0,000
 728,90;27452,000; 2413,000;    0,000
 729,15;27246,000; 2096,000;    0,000
 729,41;26750,000; 2385,000;    0,000
 729,67;28016,000; 2933,000;    0,000
 729,93;27457,000; 2181,000;    0,000
 730,18;27282,000; 2004,000;    0,000
 730,44;26880,000; 2219,000;    0,000
 730,70;26547,000; 1932,000;    0,000
 730,96;27757,000; 2281,000;    0,000
 731,21;26519,000; 1992,000;    0,000
 731,47;27236,000; 2679,000;    0,000
 731,73;26754,000; 2405,000;    0,000
 731,99;28024,000; 3041,000;    0,000
 732,24;27149,000; 2618,000;    0,000
 732,50;29048,000; 2797,000;    0,000
 732,76;28814,000; 2457,000;    0,000
 733,02;29608,000; 3119,000;    0,000
 733,27;30018,000; 3028,000;    0,000
 733,53;29661,000; 2718,000;    0,000
 733,79;30564,000; 3222,000;    0,000
 734,04;29864,000; 2725,000;    0,000
 734,30;31018,000; 2751,000;    0,000
 734,56;30664,000; 2683,000;    0,000
 734,82;30617,000; 2596,000;    0,000
 735,07;30627,000; 2928,000;    0,000
 735,33;29558,000; 2530,000;    0,000
 735,59;30718,000; 3308,000;    0,000
 735,84;30410,000; 3215,000;    0,000
 736,10;29725,000; 2673,000;    0,000
 736,36;30154,000; 2739,000;    0,000
 736,61;30006,000; 3064,000;    0,000
 736,87;29845,000; 2389,000;    0,000
 737,13;29104,000; 2402,000;    0,000
 737,38;28847,000; 2270,000;    0,000
 737,64;29020,000; 2428,000;    0,000
 737,90;28515,000; 2403,000;    0,000
 738,15;29315,000; 2815,000;    0,000
 738,41;27996,000; 2882,000;    0,000
 738,67;27306,000; 2260,000;    0,000
 738,92;27432,000; 2379,000;    0,000
 739,18;27702,000; 2968,000;    0,000
 739,44;27326,000; 2651,000;    0,000
 739,69;28051,000; 2540,000;    0,000
 739,95;27299,000; 2313,000;    0,000
 740,21;26913,000; 2756,000;    0,000
 740,46;27023,000; 2407,000;    0,000
 740,72;26884,000; 2500,000;    0,000
 740,98;26520,000; 2835,000;    0,000
 741,23;25768,000; 2321,000;    0,000
 741,49;26009,000; 2739,000;    0,000
 741,74;25866,000; 2434,000;    0,000
 742,00;24982,000; 1951,000;    0,000
 742,26;24705,000; 2156,000;    0,000
 742,51;24088,000; 1986,000;    0,000
 742,77;23471,000; 1810,000;    0,000
 743,02;23759,000; 2234,000;    0,000
 743,28;22642,000; 1586,000;    0,000
 743,54;22665,000; 1781,000;    0,000
 743,79;21875,000; 2300,000;    0,000
 744,05;21950,000; 1958,000;    0,000
 744,30;22646,000; 2212,000;    0,000
 744,56;22207,000; 2330,000;    0,000
 744,82;22471,000; 1915,000;    0,000
 745,07;22618,000; 2491,000;    0,000
 745,33;22998,000; 2316,000;    0,000
 745,58;23183,000; 2637,000;    0,000
 745,84;23666,000; 2676,000;    0,000
 746,09;23988,000; 2975,000;    0,000
 746,35;24412,000; 2746,000;    0,000
 746,61;25129,000; 3067,000;    0,000
 746,86;25424,000; 2669,000;    0,000
 747,12;24899,000; 3123,000;    0,000
 747,37;25823,000; 3450,000;    0,000
 747,63;26244,000; 3184,000;    0,000
 747,88;27299,000; 3676,000;    0,000
 748,14;27212,000; 3408,000;    0,000
 748,39;27664,000; 3290,000;    0,000
 748,65;27838,000; 3370,000;    0,000
 748,91;27923,000; 3157,000;    0,000
 749,16;27622,000; 3003,000;    0,000
 749,42;28103,000; 3463,000;    0,000
 749,67;27650,000; 3144,000;    0,000
 749,93;28084,000; 3246,000;    0,000
 750,18;27424,000; 3578,000;    0,000
 750,44;28480,000; 4068,000;    0,000
 750,69;28090,000; 3439,000;    0,000
 750,95;27498,000; 3667,000;    0,000
 751,20;27416,000; 3504,000;    0,000
 751,46;27297,000; 3356,000;    0,000
 751,71;27516,000; 3731,000;    0,000
 751,97;27240,000; 3596,000;    0,000
 752,22;26481,000; 3055,000;    0,000
 752,48;26457,000; 2901,000;    0,000
 752,73;27453,000; 4101,000;    0,000
 752,99;25829,000; 2790,000;    0,000
 753,24;25446,000; 2895,000;    0,000
 753,50;25471,000; 3368,000;    0,000
 753,75;25891,000; 3806,000;    0,000
 754,01;24361,000; 2547,000;    0,000
 754,26;23941,000; 2754,000;    0,000
 754,51;23810,000; 3080,000;    0,000
 754,77;23056,000; 2813,000;    0,000
 755,02;22716,000; 2336,000;    0,000
 755,28;21281,000; 2551,000;    0,000
 755,53;20319,000; 2074,000;    0,000
 755,79;20127,000; 2183,000;    0,000
 756,04;19739,000; 2469,000;    0,000
 756,30;18728,000; 2029,000;    0,000
 756,55;17915,000; 2124,000;    0,000
 756,81;16562,000; 2284,000;    0,000
 757,06;17454,000; 3036,000;    0,000
 757,31;16300,000; 2262,000;    0,000
 757,57;17093,000; 2305,000;    0,000
 757,82;16448,000; 2727,000;    0,000
 758,08;16828,000; 2417,000;    0,000
 758,33;17367,000; 2733,000;    0,000
 758,59;17683,000; 2994,000;    0,000
 758,84;17755,000; 2876,000;    0,000
 759,09;17745,000; 2738,000;    0,000
 759,35;18270,000; 2708,000;    0,000
 759,60;19702,000; 3403,000;    0,000
 759,86;19930,000; 3882,000;    0,000
 760,11;20706,000; 3843,000;    0,000
 760,36;19977,000; 3480,000;    0,000
 760,62;20610,000; 3507,000;    0,000
 760,87;20901,000; 3591,000;    0,000
 761,13;21270,000; 3560,000;    0,000
 761,38;21677,000; 4159,000;    0,000
 761,63;21905,000; 3781,000;    0,000
 761,89;21243,000; 3875,000;    0,000
 762,14;22251,000; 4452,000;    0,000
 762,39;21433,000; 3599,000;    0,000
 762,65;22139,000; 4038,000;    0,000
 762,90;22183,000; 4110,000;    0,000
 763,16;22334,000; 4216,000;    0,000
 763,41;21456,000; 3939,000;    0,000
 763,66;22073,000; 3574,000;    0,000
 763,92;22534,000; 4298,000;    0,000
 764,17;21478,000; 3874,000;    0,000
 764,42;21453,000; 3903,000;    0,000
 764,68;21557,000; 4068,000;    0,000
 764,93;21333,000; 3610,000;    0,000
 765,18;21438,000; 3538,000;    0,000
 765,44;21235,000; 3528,000;    0,000
 765,69;22089,000; 4890,000;    0,000
 765,94;21157,000; 3677,000;    0,000
 766,20;21529,000; 4772,000;    0,000
 766,45;21601,000; 4354,000;    0,000
 766,70;22168,000; 4289,000;    0,000
 766,96;21261,000; 3930,000;    0,000
 767,21;21351,000; 4269,000;    0,000
 767,46;20939,000; 3623,000;    0,000
 767,72;21001,000; 3920,000;    0,000
 767,97;20076,000; 3756,000;    0,000
 768,22;19563,000; 3730,000;    0,000
 768,47;19432,000; 3882,000;    0,000
 768,73;18948,000; 3580,000;    0,000
 768,98;18443,000; 3037,000;    0,000
 769,23;18105,000; 3073,000;    0,000
 769,49;17098,000; 3018,000;    0,000
 769,74;16123,000; 2530,000;    0,000
 769,99;15004,000; 2185,000;    0,000
 770,24;15022,000; 2503,000;    0,000
 770,50;12757,000; 2200,000;    0,000
 770,75;12604,000; 2422,000;    0,000
 771,00;11070,000; 2268,000;    0,000
 771,25;10299,000; 1677,000;    0,000
 771,51;10405,000; 1959,000;    0,000
 771,76;10665,000; 1765,000;    0,000
 772,01;10608,000; 2076,000;    0,000
 772,26;10034,000; 1755,000;    0,000
 772,52;10324,000; 1750,000;    0,000
 772,77; 9909,000; 1570,000;    0,000
 773,02;10497,000; 1720,000;    0,000
 773,27;10219,000; 1931,000;    0,000
 773,53; 9839,000; 1887,000;    0,000
 773,78; 9943,000; 1982,000;    0,000
 774,03; 9225,000; 1466,000;    0,000
 774,28;10073,000; 2081,000;    0,000
 774,54; 9788,000; 1851,000;    0,000
 774,79; 9696,000; 1866,000;    0,000
 775,04; 9732,000; 1966,000;    0,000
 775,29; 9159,000; 1736,000;    0,000
 775,54; 8901,000; 1122,000;    0,000
 775,80; 9161,000; 1476,000;    0,000
 776,05; 8254,000; 1286,000;    0,000
 776,30; 8453,000; 1496,000;    0,000
 776,55; 8418,000; 1637,000;    0,000
 776,80; 8405,000; 1880,000;    0,000
 777,06; 7875,000; 1245,000;    0,000
 777,31; 8106,000; 1748,000;    0,000
 777,56; 6767,000;  687,000;    0,000
 777,81; 6908,000; 1099,000;    0,000
 778,06; 6473,000;  649,000;    0,000
 778,32; 6888,000; 1343,000;    0,000
 778,57; 5961,000;  805,000;    0,000
 778,82; 5514,000;  504,000;    0,000
 779,07; 4490,000;  265,000;    0,000
 779,32; 4453,000;  267,000;    0,000
 779,57; 3682,000;   87,000;    0,000
 779,83; 3473,000;  201,000;    0,000
 780,08; 3443,000;  297,000;    0,000
 780,33; 3694,000;  505,000;    0,000
 780,58; 3617,000;  857,000;    0,000
 780,83; 3538,000;  556,000;    0,000
 781,08; 3419,000;  556,000;    0,000
 781,33; 3208,000;  447,000;    0,000
 781,59; 2845,000;  -18,000;    0,000
 781,84; 2859,000;  179,000;    0,000
 782,09; 3127,000;  241,000;    0,000
 782,34; 2978,000;   95,000;    0,000
 782,59; 2850,000;  257,000;    0,000
 782,84; 3157,000;  706,000;    0,000
 783,09; 2814,000;  359,000;    0,000
 783,34; 3396,000;  769,000;    0,000
 783,59; 2709,000;  301,000;    0,000
 783,85; 2932,000;  223,000;    0,000
 784,10; 2655,000;  104,000;    0,000
 784,35; 3380,000;  734,000;    0,000
 784,60; 2680,000;  388,000;    0,000
 784,85; 2795,000;  405,000;    0,000
 785,10; 2630,000;  507,000;    0,000
 785,35; 2566,000;  171,000;    0,000
 785,60; 2050,000;  -24,000;    0,000
 785,85; 2973,000;  577,000;    0,000
 786,10; 2636,000;  330,000;    0,000
 786,35; 3546,000; 1314,000;    0,000
 786,61; 2867,000;  959,000;    0,000
 786,86; 2802,000;  529,000;    0,000
 787,11; 2313,000;  282,000;    0,000
 787,36; 3271,000; 1014,000;    0,000
 787,61; 2589,000;  608,000;    0,000
 787,86; 2664,000;  408,000;    0,000
 788,11; 2401,000;  612,000;    0,000
 788,36; 2509,000;  436,000;    0,000
 788,61; 2610,000;  618,000;    0,000
 788,86; 3407,000;  875,000;    0,000
 789,11; 3324,000;  923,000;    0,000
 789,36; 3491,000;  723,000;    0,000
 789,61; 3761,000;  895,000;    0,000
 789,86; 4242,000; 1276,000;    0,000
 790,11; 3670,000; 1121,000;    0,000
 790,36; 4191,000; 1116,000;    0,000
 790,61; 4060,000;  901,000;    0,000
 790,86; 4371,000; 1014,000;    0,000
 791,11; 4581,000; 1447,000;    0,000
 791,36; 4822,000; 1213,000;    0,000
 791,61; 5024,000; 1443,000;    0,000
 791,86; 4957,000; 1279,000;    0,000
 792,11; 5242,000; 1636,000;    0,000
 792,36; 4767,000; 1194,000;    0,000
 792,61; 5345,000; 1704,000;    0,000
 792,86; 5455,000; 1466,000;    0,000
 793,11; 5417,000; 1887,000;    0,000
 793,36; 5070,000; 1127,000;    0,000
 793,61; 5102,000; 1230,000;    0,000
 793,86; 5339,000; 1613,000;    0,000
 794,11; 5116,000; 1310,000;    0,000
 794,36; 5741,000; 1610,000;    0,000
 794,61; 5541,000; 1915,000;    0,000
 794,86; 5700,000; 1992,000;    0,000
 795,11; 6086,000; 2018,000;    0,000
 795,36; 6691,000; 2376,000;    0,000
 795,61; 6741,000; 2436,000;    0,000
 795,86; 7665,000; 2556,000;    0,000
 796,11; 7472,000; 2457,000;    0,000
 796,36; 7748,000; 2548,000;    0,000
 796,61; 8258,000; 2823,000;    0,000
 796,86; 8395,000; 2599,000;    0,000
 797,11; 8611,000; 2489,000;    0,000
 797,36; 9239,000; 3079,000;    0,000
 797,60; 8858,000; 2595,000;    0,000
 797,85; 8986,000; 3166,000;    0,000
 798,10; 9232,000; 3433,000;    0,000
 798,35; 9352,000; 2619,000;    0,000
 798,60; 9470,000; 3061,000;    0,000
 798,85; 9376,000; 2954,000;    0,000
 799,10;10037,000; 3524,000;    0,000
 799,35; 9253,000; 2893,000;    0,000
 799,60; 8608,000; 3003,000;    0,000
 799,85; 9378,000; 3193,000;    0,000
 800,10; 8542,000; 2512,000;    0,000
 800,34; 8629,000; 2327,000;    0,000
 800,59; 8131,000; 2292,000;    0,000
 800,84; 8189,000; 2184,000;    0,000
 801,09; 8227,000; 2768,000;    0,000
 801,34; 8274,000; 2835,000;    0,000
 801,59; 7555,000; 2169,000;    0,000
 801,84; 7414,000; 2361,000;    0,000
 802,09; 7203,000; 2103,000;    0,000
 802,34; 6850,000; 2045,000;    0,000
 802,58; 6469,000; 1925,000;    0,000
 802,83; 7032,000; 2299,000;    0,000
 803,08; 6785,000; 1954,000;    0,000
 803,33; 6998,000; 2216,000;    0,000
 803,58; 7183,000; 2384,000;    0,000
 803,83; 7727,000; 2719,000;    0,000
 804,08; 7302,000; 2447,000;    0,000
 804,32; 8821,000; 3912,000;    0,000
 804,57; 8327,000; 3065,000;    0,000
 804,82; 8802,000; 3231,000;    0,000
 805,07; 9278,000; 3501,000;    0,000
 805,32;10468,000; 4108,000;    0,000
 805,57;11323,000; 4379,000;    0,000
 805,81;12272,000; 4443,000;    0,000
 806,06;12939,000; 4791,000;    0,000
 806,31;13646,000; 4369,000;    0,000
 806,56;13502,000; 4769,000;    0,000
 806,81;14770,000; 5134,000;    0,000
 807,05;14806,000; 4781,000;    0,000
 807,30;16042,000; 5504,000;    0,000
 807,55;15487,000; 5770,000;    0,000
 807,80;15678,000; 5047,000;    0,000
 808,05;15817,000; 5154,000;    0,000
 808,29;16280,000; 5855,000;    0,000
 808,54;16277,000; 5809,000;    0,000
 808,79;16492,000; 5958,000;    0,000
 809,04;16485,000; 5653,000;    0,000
 809,29;16709,000; 5808,000;    0,000
 809,53;16770,000; 5671,000;    0,000
 809,78;17297,000; 6089,000;    0,000
 810,03;16528,000; 5852,000;    0,000
 810,28;16989,000; 5851,000;    0,000
 810,52;17011,000; 5809,000;    0,000
 810,77;17596,000; 5702,000;    0,000
 811,02;17751,000; 6390,000;    0,000
 811,27;16875,000; 5757,000;    0,000
 811,51;17685,000; 6167,000;    0,000
 811,76;16862,000; 6005,000;    0,000
 812,01;17392,000; 5648,000;    0,000
 812,26;17446,000; 6118,000;    0,000
 812,50;17094,000; 5606,000;    0,000
 812,75;17237,000; 5310,000;    0,000
 813,00;16583,000; 5520,000;    0,000
 813,25;16857,000; 5629,000;    0,000
 813,49;16141,000; 5186,000;    0,000
 813,74;16520,000; 5256,000;    0,000
 813,99;15777,000; 5192,000;    0,000
 814,23;15978,000; 5689,000;    0,000
 814,48;15503,000; 5716,000;    0,000
 814,73;14003,000; 5030,000;    0,000
 814,98;13960,000; 4597,000;    0,000
 815,22;13643,000; 4867,000;    0,000
 815,47;12105,000; 3816,000;    0,000
 815,72;12390,000; 3887,000;    0,000
 815,96;11034,000; 3778,000;    0,000
 816,21;10637,000; 3047,000;    0,000
 816,46; 9298,000; 2695,000;    0,000
 816,70; 9191,000; 3019,000;    0,000
 816,95; 7631,000; 2181,000;    0,000
 817,20; 6978,000; 1874,000;    0,000
 817,44; 5647,000; 1423,000;    0,000
 817,69; 5048,000; 1062,000;    0,000
 817,94; 4530,000; 1045,000;    0,000
 818,18; 3148,000;  351,000;    0,000
 818,43; 2795,000;  226,000;    0,000
 818,68; 2086,000;  114,000;    0,000
 818,92; 1496,000;  372,000;    0,000
 819,17;  856,000;  313,000;    0,000
 819,42;  624,000;  -69,000;    0,000
 819,66;  664,000;   94,000;    0,000
 819,91;  893,000;  612,000;    0,000
 820,16; 1017,000;  627,000;    0,000
 820,40; 1600,000; 1054,000;    0,000
 820,65; 1403,000;  802,000;    0,000
 820,90;  850,000;  166,000;    0,000
 821,14; 1319,000;  421,000;    0,000
 821,39; 1317,000;  435,000;    0,000
 821,63; 1591,000;  558,000;    0,000
 821,88; 1150,000;  154,000;    0,000
 822,13; 1348,000;  384,000;    0,000
 822,37; 1882,000;  888,000;    0,000
 822,62; 1917,000;  666,000;    0,000
 822,86; 1696,000;  510,000;    0,000
 823,11; 1588,000;  472,000;    0,000
 823,36; 2054,000;  859,000;    0,000
 823,60; 2316,000; 1039,000;    0,000
 823,85; 2097,000; 1076,000;    0,000
 824,09; 2165,000; 1000,000;    0,000
 824,34; 1786,000;  725,000;    0,000
 824,59; 2084,000;  830,000;    0,000
 824,83; 2196,000;  745,000;    0,000
 825,08; 1845,000;  347,000;    0,000
 825,32; 1643,000;  611,000;    0,000
 825,57; 2128,000;  719,000;    0,000
 825,81; 2046,000;  880,000;    0,000
 826,06; 1853,000;  415,000;    0,000
 826,30; 1647,000;  363,000;    0,000
 826,55; 2134,000;  710,000;    0,000
 826,80; 1666,000;  549,000;    0,000
 827,04; 2640,000; 1297,000;    0,000
 827,29; 1973,000;  725,000;    0,000
 827,53; 2534,000; 1172,000;    0,000
 827,78; 2149,000;  962,000;    0,000
 828,02; 1886,000;  681,000;    0,000
 828,27; 1690,000;  698,000;    0,000
 828,51; 1987,000;  693,000;    0,000
 828,76; 1707,000;  661,000;    0,000
 829,00; 2129,000;  848,000;    0,000
 829,25; 1867,000;  704,000;    0,000
 829,49; 1958,000;  688,000;    0,000
 829,74; 1920,000;  864,000;    0,000
 829,98; 1942,000;  707,000;    0,000
 830,23; 1789,000;  629,000;    0,000
 830,47; 1850,000;  729,000;    0,000
 830,72; 1541,000;  553,000;    0,000
 830,96; 1873,000;  681,000;    0,000
 831,21;  983,000;   45,000;    0,000
 831,45; 2125,000; 1051,000;    0,000
 831,70; 1045,000;  234,000;    0,000
 831,94; 1297,000;  307,000;    0,000
 832,19; 1079,000;  476,000;    0,000
 832,43; 1032,000;  301,000;    0,000
 832,68; 1537,000;  635,000;    0,000
 832,92; 1449,000;  414,000;    0,000
 833,17;  407,000; -119,000;    0,000
 833,41; 1532,000;  795,000;    0,000
 833,66;  222,000;  182,000;    0,000
 833,90;  853,000;  414,000;    0,000
 834,14;  163,000;   -2,000;    0,000
 834,39;  422,000;  295,000;    0,000
 834,63;  768,000;  515,000;    0,000
 834,88; 1210,000;  606,000;    0,000
 835,12; 1373,000;  808,000;    0,000
 835,37; 1686,000;  914,000;    0,000
 835,61; 1481,000;  653,000;    0,000
 835,86; 2303,000; 1520,000;    0,000
 836,10; 1581,000;  652,000;    0,000
 836,34; 2275,000; 1151,000;    0,000
 836,59; 2643,000;  970,000;    0,000
 836,83; 3059,000; 1217,000;    0,000
 837,08; 3552,000; 1617,000;    0,000
 837,32; 3897,000; 1677,000;    0,000
 837,56; 3730,000; 1429,000;    0,000
 837,81; 4182,000; 1446,000;    0,000
 838,05; 4396,000; 1966,000;    0,000
 838,30; 4797,000; 1855,000;    0,000
 838,54; 4501,000; 1886,000;    0,000
 838,78; 4914,000; 2107,000;    0,000
 839,03; 4975,000; 1872,000;    0,000
 839,27; 5661,000; 2296,000;    0,000
 839,52; 5829,000; 2579,000;    0,000
 839,76; 5749,000; 2188,000;    0,000
 840,00; 6465,000; 3117,000;    0,000
 840,25; 5742,000; 2097,000;    0,000
 840,49; 5565,000; 2265,000;    0,000
 840,73; 6051,000; 2454,000;    0,000
 840,98; 5853,000; 2283,000;    0,000
 841,22; 6269,000; 2149,000;    0,000
 841,46; 6153,000; 2430,000;    0,000
 841,71; 6617,000; 2393,000;    0,000
 841,95; 6176,000; 2330,000;    0,000
 842,19; 6353,000; 2452,000;    0,000
 842,44; 5559,000; 2072,000;    0,000
 842,68; 6009,000; 2282,000;    0,000
 842,92; 6037,000; 2346,000;    0,000
 843,17; 6303,000; 2216,000;    0,000
 843,41; 5849,000; 2281,000;    0,000
 843,65; 6402,000; 2697,000;    0,000
 843,90; 5869,000; 2236,000;    0,000
 844,14; 6423,000; 2516,000;    0,000
 844,38; 5950,000; 2277,000;    0,000
 844,63; 5679,000; 1963,000;    0,000
 844,87; 5497,000; 2238,000;    0,000
 845,11; 5945,000; 2449,000;    0,000
 845,36; 4904,000; 1793,000;    0,000
 845,60; 4896,000; 1729,000;    0,000
 845,84; 4592,000; 1593,000;    0,000
 846,08; 4877,000; 2012,000;    0,000
 846,33; 5069,000; 1964,000;    0,000
 846,57; 4855,000; 1695,000;    0,000
 846,81; 3934,000; 1404,000;    0,000
 847,06; 4635,000; 1901,000;    0,000
 847,30; 3745,000; 1473,000;    0,000
 847,54; 3703,000; 1071,000;    0,000
 847,78; 3342,000; 1199,000;    0,000
 848,03; 2952,000;  917,000;    0,000
 848,27; 3092,000; 1202,000;    0,000
 848,51; 2831,000; 1101,000;    0,000
 848,75; 2664,000; 1295,000;    0,000
 849,00; 2588,000; 1078,000;    0,000
 849,24; 2078,000;  436,000;    0,000
 849,48; 1785,000;  226,000;    0,000
 849,72; 1766,000;  738,000;    0,000
 849,97; 2081,000; 1022,000;    0,000
 850,21; 1466,000;  726,000;    0,000
 850,45; 1802,000;  935,000;    0,000
 850,69; 1107,000;  544,000;    0,000
 850,94; 1358,000;  502,000;    0,000
 851,18;  865,000;  282,000;    0,000
 851,42; 1324,000;  374,000;    0,000
 851,66; 1567,000;  947,000;    0,000
 851,90; 1538,000;  581,000;    0,000
 852,15; 1271,000;  628,000;    0,000
 852,39; 1253,000;  484,000;    0,000
 852,63; 1106,000;  204,000;    0,000
 852,87; 1884,000; 1042,000;    0,000
 853,11; 1077,000;  428,000;    0,000
 853,36; 1610,000;  651,000;    0,000
 853,60; 1279,000;  747,000;    0,000
 853,84; 1692,000;  937,000;    0,000
 854,08; 1206,000;  816,000;    0,000
 854,32; 1289,000;  381,000;    0,000
 854,56; 1629,000;  663,000;    0,000
 854,81; 1724,000; 1070,000;    0,000
 855,05; 1280,000;  396,000;    0,000
 855,29; 1818,000; 1075,000;    0,000
 855,53; 1091,000;  280,000;    0,000
 855,77; 1333,000;  660,000;    0,000
 856,01; 1090,000;  426,000;    0,000
 856,26; 1201,000;  589,000;    0,000
 856,50;  873,000;  427,000;    0,000
 856,74;  704,000;   91,000;    0,000
 856,98; 1143,000;  689,000;    0,000
 857,22;  988,000;  614,000;    0,000
 857,46; 1021,000;  494,000;    0,000
 857,70; 1197,000;  652,000;    0,000
 857,94;  842,000;  575,000;    0,000
 858,19;  860,000;  283,000;    0,000
 858,43;  444,000;  176,000;    0,000
 858,67;  629,000;  166,000;    0,000
 858,91;  809,000;  585,000;    0,000
 859,15;  494,000;  144,000;    0,000
 859,39;  534,000;  489,000;    0,000
 859,63;  489,000;  337,000;    0,000
 859,87; 1251,000; 1396,000;    0,000
 860,11;  467,000;  315,000;    0,000
 860,35;  133,000;   91,000;    0,000
 860,60;  164,000;  -45,000;    0,000
 860,84;  205,000;   70,000;    0,000
 861,08;  684,000;  537,000;    0,000
 861,32;  498,000;  487,000;    0,000
 861,56; 1029,000;  612,000;    0,000
 861,80;  444,000;  463,000;    0,000
 862,04;  975,000;  688,000;    0,000
 862,28; 1054,000;  990,000;    0,000
 862,52;  678,000;  598,000;    0,000
 862,76;  579,000;  483,000;    0,000
 863,00; 1249,000; 1098,000;    0,000
 863,24;  228,000;  177,000;    0,000
 863,48;  834,000;  580,000;    0,000
 863,72;  773,000;  688,000;    0,000
 863,96; 1422,000; 1254,000;    0,000
 864,20;  999,000;  892,000;    0,000
 864,44;  995,000;  569,000;    0,000
 864,69;  511,000;  311,000;    0,000
 864,93;  587,000;  363,000;    0,000
 865,17;  295,000;  152,000;    0,000
 865,41; 1568,000; 1233,000;    0,000
 865,65;  444,000;  308,000;    0,000
 865,89;  984,000;  374,000;    0,000
 866,13;  786,000;  583,000;    0,000
 866,37; 1486,000; 1073,000;    0,000
 866,61;  568,000;  338,000;    0,000
 866,85;  767,000;  587,000;    0,000
 867,09;  606,000;  412,000;    0,000
 867,33; 1400,000; 1328,000;    0,000
 867,57; 1231,000;  926,000;    0,000
 867,81; 1323,000;  894,000;    0,000
 868,05; 1032,000;  671,000;    0,000
 868,29;  974,000;  633,000;    0,000
 868,53; 1136,000;  691,000;    0,000
 868,76; 1598,000;  988,000;    0,000
 869,00;  992,000;  622,000;    0,000
 869,24; 1719,000;  980,000;    0,000
 869,48; 1071,000;  772,000;    0,000
 869,72;  937,000;  412,000;    0,000
 869,96; 1043,000;  597,000;    0,000
 870,20; 1295,000;  822,000;    0,000
 870,44; 1016,000;  719,000;    0,000
 870,68; 1428,000; 1205,000;    0,000
 870,92;  883,000;  753,000;    0,000
 871,16; 1456,000;  811,000;    0,000
 871,40; 1704,000; 1452,000;    0,000
 871,64; 1775,000; 1108,000;    0,000
 871,88;  970,000;  604,000;    0,000
 872,12; 1348,000;  707,000;    0,000
 872,36; 1514,000; 1079,000;    0,000
 872,60; 1201,000;  851,000;    0,000
 872,83; 1140,000;  687,000;    0,000
 873,07; 1784,000; 1255,000;    0,000
 873,31; 1310,000;  871,000;    0,000
 873,55; 1526,000; 1258,000;    0,000
 873,79;  999,000;  649,000;    0,000
 874,03; 1251,000;  968,000;    0,000
 874,27;  964,000;  693,000;    0,000
 874,51; 1322,000;  908,000;    0,000
 874,75; 1355,000;  968,000;    0,000
 874,99; 1180,000;  947,000;    0,000
 875,22; 1456,000; 1189,000;    0,000
 875,46; 1063,000;  775,000;    0,000
 875,70; 1117,000;  879,000;    0,000
 875,94; 1512,000; 1099,000;    0,000
 876,18; 1172,000; 1107,000;    0,000
 876,42; 1085,000;  827,000;    0,000
 876,66; 1354,000; 1175,000;    0,000
 876,89; 1259,000; 1014,000;    0,000
 877,13; 1352,000; 1229,000;    0,000
 877,37; 1193,000;  802,000;    0,000
 877,61; 1253,000; 1127,000;    0,000
 877,85; 1766,000; 1670,000;    0,000
 878,09; 1858,000; 1838,000;    0,000
 878,33; 1643,000; 1203,000;    0,000
 878,56; 1187,000; 1142,000;    0,000
 878,80; 1355,000; 1142,000;    0,000
 879,04; 1637,000; 1568,000;    0,000
 879,28; 1684,000; 1668,000;    0,000
 879,52; 1504,000; 1195,000;    0,000
 879,75; 1634,000; 1618,000;    0,000
 879,99; 1476,000; 1584,000;    0,000
 880,23; 1605,000; 1369,000;    0,000
 880,47; 1664,000; 1581,000;    0,000
 880,71; 2111,000; 1706,000;    0,000
 880,95; 1911,000; 2066,000;    0,000
 881,18; 2061,000; 1757,000;    0,000
 881,42; 2227,000; 2202,000;    0,000
 881,66; 2567,000; 2555,000;    0,000
 881,90; 2208,000; 2050,000;    0,000
 882,13; 2430,000; 2238,000;    0,000
 882,37; 2405,000; 2528,000;    0,000
 882,61; 2770,000; 2750,000;    0,000
 882,85; 2994,000; 2749,000;    0,000
 883,09; 3115,000; 3200,000;    0,000
 883,32; 2875,000; 3452,000;    0,000
 883,56; 3845,000; 3739,000;    0,000
 883,80; 3591,000; 3764,000;    0,000
 884,04; 4140,000; 4057,000;    0,000
 884,27; 4726,000; 5097,000;    0,000
 884,51; 4832,000; 4775,000;    0,000
 884,75; 5791,000; 5777,000;    0,000
 884,99; 6632,000; 6635,000;    0,000
 885,22; 7158,000; 7196,000;    0,000
 885,46; 8556,000; 8313,000;    0,000

