qd6_libre_amarillo_chillon
Integration time [ms]:  500,00
Averaging Nr. [scans]: 1
Smoothing Nr. [pixels]: 0
Data measured with spectrometer [name]: 1412150E1
Wave   ;Sample   ;Dark     ;Reference;Scope
[nm]   ;[counts] ;[counts] ;[counts] 

 337,19; 4326,000; 4519,000;    0,000
 337,48; 4852,000; 4777,000;    0,000
 337,77; 4595,000; 4996,000;    0,000
 338,07; 4664,000; 5120,000;    0,000
 338,36; 4593,000; 5286,000;    0,000
 338,66; 5013,000; 5142,000;    0,000
 338,95; 5576,000; 5652,000;    0,000
 339,24; 5339,000; 5451,000;    0,000
 339,54; 5104,000; 5497,000;    0,000
 339,83; 5888,000; 5938,000;    0,000
 340,12; 5554,000; 6176,000;    0,000
 340,42; 5930,000; 5847,000;    0,000
 340,71; 5885,000; 6095,000;    0,000
 341,00; 6226,000; 6297,000;    0,000
 341,30; 6066,000; 6500,000;    0,000
 341,59; 6187,000; 6309,000;    0,000
 341,88; 6707,000; 6505,000;    0,000
 342,18; 6482,000; 6662,000;    0,000
 342,47; 6931,000; 7136,000;    0,000
 342,76; 7465,000; 7683,000;    0,000
 343,06; 6407,000; 6938,000;    0,000
 343,35; 7073,000; 7263,000;    0,000
 343,64; 6743,000; 7272,000;    0,000
 343,94; 7267,000; 7497,000;    0,000
 344,23; 7134,000; 7195,000;    0,000
 344,52; 8037,000; 8224,000;    0,000
 344,82; 7690,000; 7697,000;    0,000
 345,11; 7749,000; 7983,000;    0,000
 345,40; 8047,000; 8548,000;    0,000
 345,70; 8185,000; 8504,000;    0,000
 345,99; 7986,000; 8171,000;    0,000
 346,28; 8459,000; 8727,000;    0,000
 346,58; 8254,000; 8549,000;    0,000
 346,87; 8809,000; 8801,000;    0,000
 347,16; 8938,000; 9409,000;    0,000
 347,45; 8771,000; 9224,000;    0,000
 347,75; 8599,000; 9093,000;    0,000
 348,04; 9913,000;10353,000;    0,000
 348,33; 9306,000;10122,000;    0,000
 348,63;10167,000;10359,000;    0,000
 348,92; 9819,000; 9975,000;    0,000
 349,21;10401,000;10645,000;    0,000
 349,51; 9982,000;10752,000;    0,000
 349,80;10165,000;10882,000;    0,000
 350,09; 9973,000;10725,000;    0,000
 350,38;10823,000;11350,000;    0,000
 350,68;10680,000;11062,000;    0,000
 350,97;11161,000;12057,000;    0,000
 351,26;11770,000;12382,000;    0,000
 351,55;10872,000;11691,000;    0,000
 351,85;11185,000;11512,000;    0,000
 352,14;11172,000;12062,000;    0,000
 352,43;11644,000;12134,000;    0,000
 352,73;11823,000;12194,000;    0,000
 353,02;12168,000;12961,000;    0,000
 353,31;12060,000;12741,000;    0,000
 353,60;12518,000;13288,000;    0,000
 353,90;12790,000;13402,000;    0,000
 354,19;12777,000;13302,000;    0,000
 354,48;13068,000;13583,000;    0,000
 354,77;13130,000;13930,000;    0,000
 355,07;13303,000;14181,000;    0,000
 355,36;13565,000;14068,000;    0,000
 355,65;13508,000;15094,000;    0,000
 355,94;13550,000;14989,000;    0,000
 356,23;14233,000;15518,000;    0,000
 356,53;14223,000;16018,000;    0,000
 356,82;14966,000;16227,000;    0,000
 357,11;14454,000;16204,000;    0,000
 357,40;15163,000;15979,000;    0,000
 357,70;15158,000;16676,000;    0,000
 357,99;15871,000;17580,000;    0,000
 358,28;15295,000;17299,000;    0,000
 358,57;16629,000;18173,000;    0,000
 358,87;16191,000;17755,000;    0,000
 359,16;16429,000;18435,000;    0,000
 359,45;16663,000;18771,000;    0,000
 359,74;17527,000;19402,000;    0,000
 360,03;18058,000;20186,000;    0,000
 360,33;17309,000;19664,000;    0,000
 360,62;17698,000;19493,000;    0,000
 360,91;17805,000;20114,000;    0,000
 361,20;17563,000;20008,000;    0,000
 361,49;18881,000;20694,000;    0,000
 361,79;18686,000;20705,000;    0,000
 362,08;18945,000;21141,000;    0,000
 362,37;19514,000;21162,000;    0,000
 362,66;19299,000;20959,000;    0,000
 362,95;19380,000;21384,000;    0,000
 363,25;18791,000;21529,000;    0,000
 363,54;19124,000;21446,000;    0,000
 363,83;19095,000;21732,000;    0,000
 364,12;19235,000;21897,000;    0,000
 364,41;19254,000;21721,000;    0,000
 364,70;19651,000;22250,000;    0,000
 365,00;19012,000;22000,000;    0,000
 365,29;18687,000;22139,000;    0,000
 365,58;19525,000;22063,000;    0,000
 365,87;19521,000;21752,000;    0,000
 366,16;18863,000;21322,000;    0,000
 366,45;19244,000;21847,000;    0,000
 366,75;19297,000;21324,000;    0,000
 367,04;18934,000;21463,000;    0,000
 367,33;19040,000;21349,000;    0,000
 367,62;18597,000;21652,000;    0,000
 367,91;18484,000;21204,000;    0,000
 368,20;17656,000;20775,000;    0,000
 368,50;18321,000;21236,000;    0,000
 368,79;17612,000;20604,000;    0,000
 369,08;17906,000;20361,000;    0,000
 369,37;18202,000;20559,000;    0,000
 369,66;17738,000;20310,000;    0,000
 369,95;17332,000;20243,000;    0,000
 370,24;16812,000;20353,000;    0,000
 370,53;16435,000;19478,000;    0,000
 370,83;16453,000;19258,000;    0,000
 371,12;16107,000;18966,000;    0,000
 371,41;15792,000;18842,000;    0,000
 371,70;15402,000;18296,000;    0,000
 371,99;15205,000;18008,000;    0,000
 372,28;14610,000;17604,000;    0,000
 372,57;14043,000;17814,000;    0,000
 372,86;13838,000;16670,000;    0,000
 373,16;13475,000;16681,000;    0,000
 373,45;13614,000;16549,000;    0,000
 373,74;12435,000;15829,000;    0,000
 374,03;13363,000;16024,000;    0,000
 374,32;13109,000;16248,000;    0,000
 374,61;12367,000;15984,000;    0,000
 374,90;12175,000;15269,000;    0,000
 375,19;11911,000;14620,000;    0,000
 375,48;11381,000;14773,000;    0,000
 375,78;11364,000;14703,000;    0,000
 376,07;10693,000;14255,000;    0,000
 376,36;10677,000;14048,000;    0,000
 376,65;10589,000;14089,000;    0,000
 376,94;10006,000;13344,000;    0,000
 377,23; 9862,000;13638,000;    0,000
 377,52; 9900,000;13325,000;    0,000
 377,81; 9552,000;12717,000;    0,000
 378,10; 9436,000;13206,000;    0,000
 378,39; 9925,000;13371,000;    0,000
 378,68; 9221,000;12866,000;    0,000
 378,97; 9306,000;12559,000;    0,000
 379,26; 8496,000;11454,000;    0,000
 379,56; 8470,000;11636,000;    0,000
 379,85; 8654,000;12247,000;    0,000
 380,14; 7890,000;11310,000;    0,000
 380,43; 8131,000;11443,000;    0,000
 380,72; 8152,000;12082,000;    0,000
 381,01; 7947,000;11839,000;    0,000
 381,30; 7495,000;11308,000;    0,000
 381,59; 7449,000;11084,000;    0,000
 381,88; 7209,000;10752,000;    0,000
 382,17; 7208,000;10656,000;    0,000
 382,46; 7133,000;11054,000;    0,000
 382,75; 7011,000;10779,000;    0,000
 383,04; 6490,000;10369,000;    0,000
 383,33; 6460,000;10529,000;    0,000
 383,62; 6676,000;10143,000;    0,000
 383,91; 6034,000; 9842,000;    0,000
 384,20; 6777,000;10664,000;    0,000
 384,49; 6025,000;10016,000;    0,000
 384,78; 5958,000; 9537,000;    0,000
 385,07; 5874,000; 9869,000;    0,000
 385,36; 5993,000; 9800,000;    0,000
 385,65; 5514,000; 9627,000;    0,000
 385,94; 5252,000; 9539,000;    0,000
 386,23; 5483,000; 9454,000;    0,000
 386,52; 5369,000; 8805,000;    0,000
 386,81; 5806,000; 9847,000;    0,000
 387,10; 4945,000; 9246,000;    0,000
 387,39; 4622,000; 8569,000;    0,000
 387,68; 4815,000; 8956,000;    0,000
 387,97; 4810,000; 9054,000;    0,000
 388,26; 4653,000; 8392,000;    0,000
 388,55; 4188,000; 8528,000;    0,000
 388,84; 4287,000; 8787,000;    0,000
 389,13; 4505,000; 8379,000;    0,000
 389,42; 4373,000; 8860,000;    0,000
 389,71; 4246,000; 8775,000;    0,000
 390,00; 4188,000; 8527,000;    0,000
 390,29; 4195,000; 8773,000;    0,000
 390,58; 4310,000; 8302,000;    0,000
 390,87; 3926,000; 8653,000;    0,000
 391,16; 4191,000; 8430,000;    0,000
 391,45; 3512,000; 8257,000;    0,000
 391,74; 3771,000; 8053,000;    0,000
 392,03; 4367,000; 8568,000;    0,000
 392,32; 3601,000; 7993,000;    0,000
 392,61; 3501,000; 7782,000;    0,000
 392,90; 3280,000; 7701,000;    0,000
 393,19; 3461,000; 7850,000;    0,000
 393,48; 2981,000; 7493,000;    0,000
 393,77; 2884,000; 7194,000;    0,000
 394,06; 3206,000; 7300,000;    0,000
 394,35; 2976,000; 7192,000;    0,000
 394,64; 2944,000; 7166,000;    0,000
 394,93; 2496,000; 6812,000;    0,000
 395,22; 2642,000; 7084,000;    0,000
 395,51; 3151,000; 7275,000;    0,000
 395,80; 2874,000; 6721,000;    0,000
 396,09; 2326,000; 6734,000;    0,000
 396,38; 2566,000; 6827,000;    0,000
 396,67; 2269,000; 6625,000;    0,000
 396,95; 2663,000; 7214,000;    0,000
 397,24; 2173,000; 7052,000;    0,000
 397,53; 2619,000; 8068,000;    0,000
 397,82; 2617,000; 8647,000;    0,000
 398,11; 2838,000; 9783,000;    0,000
 398,40; 2811,000;10706,000;    0,000
 398,69; 3458,000;11843,000;    0,000
 398,98; 3285,000;12285,000;    0,000
 399,27; 3900,000;12832,000;    0,000
 399,56; 3731,000;12997,000;    0,000
 399,85; 4251,000;13598,000;    0,000
 400,14; 4603,000;14305,000;    0,000
 400,42; 4204,000;14131,000;    0,000
 400,71; 3942,000;13799,000;    0,000
 401,00; 4331,000;14597,000;    0,000
 401,29; 4425,000;14540,000;    0,000
 401,58; 4345,000;14557,000;    0,000
 401,87; 4744,000;15101,000;    0,000
 402,16; 3989,000;14872,000;    0,000
 402,45; 4379,000;14890,000;    0,000
 402,74; 4730,000;15279,000;    0,000
 403,03; 4240,000;14890,000;    0,000
 403,31; 4706,000;15193,000;    0,000
 403,60; 4436,000;14965,000;    0,000
 403,89; 4097,000;14546,000;    0,000
 404,18; 4477,000;14709,000;    0,000
 404,47; 3952,000;14314,000;    0,000
 404,76; 4131,000;14718,000;    0,000
 405,05; 4508,000;14495,000;    0,000
 405,34; 3484,000;13520,000;    0,000
 405,62; 3580,000;14395,000;    0,000
 405,91; 4190,000;14404,000;    0,000
 406,20; 3793,000;14296,000;    0,000
 406,49; 3908,000;14141,000;    0,000
 406,78; 3768,000;13849,000;    0,000
 407,07; 3798,000;13801,000;    0,000
 407,36; 4067,000;13823,000;    0,000
 407,64; 4138,000;13621,000;    0,000
 407,93; 4040,000;13981,000;    0,000
 408,22; 3500,000;13202,000;    0,000
 408,51; 3923,000;13321,000;    0,000
 408,80; 3465,000;12237,000;    0,000
 409,09; 3621,000;12421,000;    0,000
 409,38; 3254,000;11910,000;    0,000
 409,66; 4046,000;12082,000;    0,000
 409,95; 4029,000;11496,000;    0,000
 410,24; 3082,000; 9873,000;    0,000
 410,53; 3024,000; 8962,000;    0,000
 410,82; 2919,000; 7956,000;    0,000
 411,11; 3197,000; 7008,000;    0,000
 411,39; 3046,000; 6189,000;    0,000
 411,68; 1791,000; 4926,000;    0,000
 411,97; 1448,000; 3552,000;    0,000
 412,26; 1057,000; 3121,000;    0,000
 412,55; 1174,000; 3057,000;    0,000
 412,83; 1627,000; 3416,000;    0,000
 413,12;  949,000; 2552,000;    0,000
 413,41;  852,000; 2621,000;    0,000
 413,70; 1588,000; 3321,000;    0,000
 413,99;  829,000; 2190,000;    0,000
 414,27; 1029,000; 2051,000;    0,000
 414,56; 1032,000; 2295,000;    0,000
 414,85; 1266,000; 2483,000;    0,000
 415,14; 1006,000; 2062,000;    0,000
 415,43;  894,000; 1646,000;    0,000
 415,71;  610,000; 1325,000;    0,000
 416,00;  764,000; 1612,000;    0,000
 416,29;  915,000; 1599,000;    0,000
 416,58; 1051,000; 1686,000;    0,000
 416,87;  989,000; 1708,000;    0,000
 417,15;  693,000; 1217,000;    0,000
 417,44;  896,000; 1707,000;    0,000
 417,73; 1377,000; 1774,000;    0,000
 418,02; 1367,000; 1850,000;    0,000
 418,30;  930,000; 1393,000;    0,000
 418,59; 1064,000; 1702,000;    0,000
 418,88; 1162,000; 1614,000;    0,000
 419,17;  884,000; 1292,000;    0,000
 419,45;  963,000; 1342,000;    0,000
 419,74;  965,000; 1466,000;    0,000
 420,03;  620,000;  888,000;    0,000
 420,32;  979,000; 1298,000;    0,000
 420,60; 1146,000; 1633,000;    0,000
 420,89; 1071,000; 1336,000;    0,000
 421,18; 1220,000; 1224,000;    0,000
 421,47;  668,000;  915,000;    0,000
 421,75;  509,000;  798,000;    0,000
 422,04;  759,000;  988,000;    0,000
 422,33;  829,000;  919,000;    0,000
 422,62; 1130,000; 1261,000;    0,000
 422,90;  702,000;  868,000;    0,000
 423,19;  850,000;  868,000;    0,000
 423,48;  805,000;  953,000;    0,000
 423,77;  880,000;  989,000;    0,000
 424,05;  647,000;  771,000;    0,000
 424,34;  737,000;  777,000;    0,000
 424,63; 1177,000; 1289,000;    0,000
 424,91; 1050,000; 1252,000;    0,000
 425,20;  950,000;  825,000;    0,000
 425,49; 1185,000; 1191,000;    0,000
 425,78; 1088,000; 1265,000;    0,000
 426,06;  980,000;  972,000;    0,000
 426,35; 1691,000; 1885,000;    0,000
 426,64; 1223,000; 1272,000;    0,000
 426,92; 1432,000; 1358,000;    0,000
 427,21;  760,000;  772,000;    0,000
 427,50;  824,000;  471,000;    0,000
 427,78;  553,000;  580,000;    0,000
 428,07; 9853,000;10971,000;    0,000
 428,36;  568,000;  696,000;    0,000
 428,65; 1646,000; 1755,000;    0,000
 428,93; 1024,000; 1399,000;    0,000
 429,22; 1530,000; 2217,000;    0,000
 429,51; 1032,000; 2177,000;    0,000
 429,79;  968,000; 2359,000;    0,000
 430,08; 1521,000; 2793,000;    0,000
 430,37; 1314,000; 3226,000;    0,000
 430,65; 1247,000; 3038,000;    0,000
 430,94; 1554,000; 3643,000;    0,000
 431,23; 1358,000; 3501,000;    0,000
 431,51; 1508,000; 3635,000;    0,000
 431,80; 2079,000; 3812,000;    0,000
 432,09; 1889,000; 3784,000;    0,000
 432,37; 1593,000; 4191,000;    0,000
 432,66; 1785,000; 4093,000;    0,000
 432,95; 1572,000; 3871,000;    0,000
 433,23; 2151,000; 4511,000;    0,000
 433,52; 1668,000; 4259,000;    0,000
 433,81; 1712,000; 4230,000;    0,000
 434,09; 1878,000; 4322,000;    0,000
 434,38; 1422,000; 4106,000;    0,000
 434,66; 2059,000; 4497,000;    0,000
 434,95; 2008,000; 4346,000;    0,000
 435,24; 1978,000; 4354,000;    0,000
 435,52; 1713,000; 4004,000;    0,000
 435,81; 1521,000; 3892,000;    0,000
 436,10; 1879,000; 4531,000;    0,000
 436,38; 1980,000; 4278,000;    0,000
 436,67; 1825,000; 4196,000;    0,000
 436,95; 2164,000; 4319,000;    0,000
 437,24; 1940,000; 4133,000;    0,000
 437,53; 1523,000; 3687,000;    0,000
 437,81; 2292,000; 4544,000;    0,000
 438,10; 1994,000; 4729,000;    0,000
 438,39; 1800,000; 3826,000;    0,000
 438,67; 1554,000; 3878,000;    0,000
 438,96; 2181,000; 4744,000;    0,000
 439,24; 1926,000; 4235,000;    0,000
 439,53; 2333,000; 4443,000;    0,000
 439,82; 1650,000; 3668,000;    0,000
 440,10; 1663,000; 4050,000;    0,000
 440,39; 1834,000; 3995,000;    0,000
 440,67; 1665,000; 3706,000;    0,000
 440,96; 1792,000; 3703,000;    0,000
 441,25; 2037,000; 3713,000;    0,000
 441,53; 2151,000; 3424,000;    0,000
 441,82; 1605,000; 2410,000;    0,000
 442,10; 1678,000; 2274,000;    0,000
 442,39; 1282,000; 1444,000;    0,000
 442,67; 4058,000; 4458,000;    0,000
 442,96; 1455,000; 1101,000;    0,000
 443,25; 1152,000;  738,000;    0,000
 443,53; 1843,000; 1578,000;    0,000
 443,82; 1221,000;  791,000;    0,000
 444,10; 1659,000; 1148,000;    0,000
 444,39; 1305,000; 1098,000;    0,000
 444,67; 1716,000; 1066,000;    0,000
 444,96; 1005,000;  674,000;    0,000
 445,24; 1364,000; 1002,000;    0,000
 445,53; 1213,000;  837,000;    0,000
 445,82; 1756,000; 1072,000;    0,000
 446,10; 1308,000;  884,000;    0,000
 446,39; 1138,000;  670,000;    0,000
 446,67; 1508,000;  810,000;    0,000
 446,96; 1240,000;  727,000;    0,000
 447,24; 1080,000;  677,000;    0,000
 447,53; 1216,000;  749,000;    0,000
 447,81; 1145,000;  766,000;    0,000
 448,10; 1474,000;  990,000;    0,000
 448,38; 1124,000;  573,000;    0,000
 448,67; 1518,000; 1209,000;    0,000
 448,95; 1340,000; 1076,000;    0,000
 449,24; 1658,000; 1090,000;    0,000
 449,53; 1425,000;  990,000;    0,000
 449,81;  962,000;  561,000;    0,000
 450,10;  825,000;  480,000;    0,000
 450,38; 1228,000;  743,000;    0,000
 450,67; 1761,000; 1212,000;    0,000
 450,95; 1390,000;  890,000;    0,000
 451,24; 1077,000;  478,000;    0,000
 451,52; 1362,000;  717,000;    0,000
 451,81; 1246,000;  999,000;    0,000
 452,09; 1558,000; 1007,000;    0,000
 452,38; 1515,000; 1098,000;    0,000
 452,66; 1372,000;  852,000;    0,000
 452,95; 1155,000;  938,000;    0,000
 453,23; 1803,000; 1266,000;    0,000
 453,52; 1461,000; 1055,000;    0,000
 453,80; 1815,000; 1298,000;    0,000
 454,08; 1710,000; 1019,000;    0,000
 454,37; 1281,000;  832,000;    0,000
 454,65; 1119,000;  906,000;    0,000
 454,94; 1616,000; 1042,000;    0,000
 455,22;  905,000;  650,000;    0,000
 455,51; 1061,000;  664,000;    0,000
 455,79; 1760,000; 1497,000;    0,000
 456,08; 1757,000; 1360,000;    0,000
 456,36; 1952,000; 1266,000;    0,000
 456,65; 1530,000; 1088,000;    0,000
 456,93; 1156,000;  871,000;    0,000
 457,22; 1300,000;  715,000;    0,000
 457,50;  970,000;  671,000;    0,000
 457,79; 1240,000;  772,000;    0,000
 458,07; 1803,000; 1381,000;    0,000
 458,35; 1352,000;  832,000;    0,000
 458,64; 1318,000;  905,000;    0,000
 458,92; 2197,000; 1508,000;    0,000
 459,21; 1358,000;  919,000;    0,000
 459,49; 1335,000;  909,000;    0,000
 459,78; 1410,000;  975,000;    0,000
 460,06; 1303,000;  921,000;    0,000
 460,34; 1362,000;  777,000;    0,000
 460,63; 1223,000;  756,000;    0,000
 460,91; 1223,000;  756,000;    0,000
 461,20; 1437,000;  910,000;    0,000
 461,48; 1299,000; 1030,000;    0,000
 461,77; 1361,000;  895,000;    0,000
 462,05; 1583,000;  991,000;    0,000
 462,33; 1463,000; 1043,000;    0,000
 462,62; 1638,000; 1186,000;    0,000
 462,90; 1453,000;  886,000;    0,000
 463,19; 1622,000; 1247,000;    0,000
 463,47; 1699,000;  992,000;    0,000
 463,75; 1915,000; 1375,000;    0,000
 464,04; 1583,000; 1000,000;    0,000
 464,32; 1416,000;  832,000;    0,000
 464,61; 1629,000; 1248,000;    0,000
 464,89; 1461,000; 1101,000;    0,000
 465,17; 2045,000; 1514,000;    0,000
 465,46; 1649,000; 1159,000;    0,000
 465,74; 1342,000;  683,000;    0,000
 466,03; 1472,000;  963,000;    0,000
 466,31; 1434,000;  833,000;    0,000
 466,59; 1538,000; 1150,000;    0,000
 466,88; 1590,000;  912,000;    0,000
 467,16; 1755,000; 1179,000;    0,000
 467,44; 1592,000;  988,000;    0,000
 467,73; 1439,000;  798,000;    0,000
 468,01; 1985,000; 1138,000;    0,000
 468,30; 1881,000; 1189,000;    0,000
 468,58; 1763,000; 1308,000;    0,000
 468,86; 1296,000;  815,000;    0,000
 469,15; 1501,000; 1082,000;    0,000
 469,43; 1218,000;  674,000;    0,000
 469,71; 1666,000; 1095,000;    0,000
 470,00; 1241,000;  781,000;    0,000
 470,28; 1410,000;  800,000;    0,000
 470,56; 1812,000; 1276,000;    0,000
 470,85; 1817,000; 1232,000;    0,000
 471,13; 1361,000;  777,000;    0,000
 471,41; 1450,000;  791,000;    0,000
 471,70; 1663,000; 1107,000;    0,000
 471,98; 2532,000; 1945,000;    0,000
 472,26; 1634,000; 1105,000;    0,000
 472,55; 1284,000;  649,000;    0,000
 472,83; 1491,000;  919,000;    0,000
 473,11; 1869,000; 1236,000;    0,000
 473,40; 1634,000; 1188,000;    0,000
 473,68; 2045,000; 1407,000;    0,000
 473,96; 1762,000; 1298,000;    0,000
 474,25; 1553,000;  930,000;    0,000
 474,53; 1390,000;  845,000;    0,000
 474,81; 1699,000; 1171,000;    0,000
 475,10; 1782,000; 1097,000;    0,000
 475,38; 1911,000; 1476,000;    0,000
 475,66; 1366,000; 1098,000;    0,000
 475,94; 1837,000; 1195,000;    0,000
 476,23; 2627,000; 1903,000;    0,000
 476,51; 1707,000; 1219,000;    0,000
 476,79; 1477,000;  937,000;    0,000
 477,08; 1903,000; 1346,000;    0,000
 477,36; 1780,000; 1097,000;    0,000
 477,64; 1985,000; 1162,000;    0,000
 477,92; 1877,000; 1203,000;    0,000
 478,21; 1702,000;  647,000;    0,000
 478,49; 2239,000; 1564,000;    0,000
 478,77; 1764,000;  985,000;    0,000
 479,06; 1588,000; 1000,000;    0,000
 479,34; 1640,000;  918,000;    0,000
 479,62; 1757,000; 1015,000;    0,000
 479,90; 1797,000; 1047,000;    0,000
 480,19; 1964,000; 1490,000;    0,000
 480,47; 1676,000; 1039,000;    0,000
 480,75; 1476,000;  984,000;    0,000
 481,03; 1690,000; 1256,000;    0,000
 481,32; 1736,000; 1199,000;    0,000
 481,60; 1774,000; 1018,000;    0,000
 481,88; 1874,000; 1195,000;    0,000
 482,16; 2044,000;  869,000;    0,000
 482,45; 1559,000;  675,000;    0,000
 482,73; 2098,000; 1188,000;    0,000
 483,01; 2359,000; 1472,000;    0,000
 483,29; 1751,000; 1062,000;    0,000
 483,58; 2576,000; 1904,000;    0,000
 483,86; 2087,000; 1244,000;    0,000
 484,14; 1813,000; 1077,000;    0,000
 484,42; 1873,000; 1037,000;    0,000
 484,71; 1893,000; 1262,000;    0,000
 484,99; 1918,000; 1169,000;    0,000
 485,27; 1689,000;  885,000;    0,000
 485,55; 1972,000; 1219,000;    0,000
 485,83; 1634,000; 1028,000;    0,000
 486,12; 1698,000; 1034,000;    0,000
 486,40; 2039,000; 1328,000;    0,000
 486,68; 1942,000; 1407,000;    0,000
 486,96; 1574,000;  969,000;    0,000
 487,24; 1661,000;  967,000;    0,000
 487,53; 1447,000;  886,000;    0,000
 487,81; 2105,000; 1263,000;    0,000
 488,09; 1803,000; 1023,000;    0,000
 488,37; 2343,000; 1573,000;    0,000
 488,65; 1870,000; 1241,000;    0,000
 488,94; 2047,000; 1244,000;    0,000
 489,22; 1828,000; 1003,000;    0,000
 489,50; 2087,000; 1590,000;    0,000
 489,78; 1733,000; 1072,000;    0,000
 490,06; 1951,000; 1185,000;    0,000
 490,34; 1393,000;  807,000;    0,000
 490,63; 1762,000; 1068,000;    0,000
 490,91; 1273,000;  798,000;    0,000
 491,19; 1656,000; 1047,000;    0,000
 491,47; 1823,000; 1022,000;    0,000
 491,75; 1606,000; 1108,000;    0,000
 492,04; 1615,000; 1019,000;    0,000
 492,32; 2300,000; 1572,000;    0,000
 492,60; 2264,000; 1277,000;    0,000
 492,88; 1527,000;  546,000;    0,000
 493,16; 1783,000; 1183,000;    0,000
 493,44; 1769,000; 1190,000;    0,000
 493,72; 1898,000; 1215,000;    0,000
 494,01; 1832,000; 1253,000;    0,000
 494,29; 1481,000;  670,000;    0,000
 494,57; 1539,000;  978,000;    0,000
 494,85; 1920,000; 1096,000;    0,000
 495,13; 1763,000; 1000,000;    0,000
 495,41; 1968,000; 1100,000;    0,000
 495,69; 1686,000;  984,000;    0,000
 495,98; 2213,000; 1656,000;    0,000
 496,26; 2296,000; 1577,000;    0,000
 496,54; 1541,000;  881,000;    0,000
 496,82; 1940,000; 1181,000;    0,000
 497,10; 1497,000;  793,000;    0,000
 497,38; 1926,000; 1119,000;    0,000
 497,66; 1426,000;  570,000;    0,000
 497,94; 1588,000;  979,000;    0,000
 498,22; 1756,000; 1214,000;    0,000
 498,51; 1728,000;  931,000;    0,000
 498,79; 2025,000; 1581,000;    0,000
 499,07; 1591,000;  894,000;    0,000
 499,35; 1324,000;  727,000;    0,000
 499,63; 1578,000;  880,000;    0,000
 499,91; 1882,000; 1169,000;    0,000
 500,19; 1900,000; 1241,000;    0,000
 500,47; 1743,000;  728,000;    0,000
 500,75; 1914,000; 1050,000;    0,000
 501,03; 1787,000; 1307,000;    0,000
 501,31; 2037,000; 1267,000;    0,000
 501,60; 2260,000; 1486,000;    0,000
 501,88; 1801,000;  881,000;    0,000
 502,16; 2069,000; 1204,000;    0,000
 502,44; 2131,000; 1392,000;    0,000
 502,72; 1608,000; 1057,000;    0,000
 503,00; 1974,000; 1416,000;    0,000
 503,28; 1478,000;  914,000;    0,000
 503,56; 1480,000;  821,000;    0,000
 503,84; 1581,000; 1049,000;    0,000
 504,12; 2082,000; 1353,000;    0,000
 504,40; 1505,000; 1011,000;    0,000
 504,68; 1417,000;  800,000;    0,000
 504,96; 1538,000;  796,000;    0,000
 505,24; 2312,000; 1769,000;    0,000
 505,52; 1695,000; 1142,000;    0,000
 505,80; 1896,000; 1290,000;    0,000
 506,08; 1758,000; 1035,000;    0,000
 506,36; 1915,000; 1397,000;    0,000
 506,65; 1958,000; 1388,000;    0,000
 506,93; 2287,000; 1568,000;    0,000
 507,21; 1796,000; 1160,000;    0,000
 507,49; 2113,000; 1362,000;    0,000
 507,77; 1673,000; 1248,000;    0,000
 508,05; 1937,000; 1345,000;    0,000
 508,33; 1835,000; 1441,000;    0,000
 508,61; 2172,000; 1199,000;    0,000
 508,89; 1890,000; 1634,000;    0,000
 509,17; 2020,000; 1345,000;    0,000
 509,45; 2034,000; 1494,000;    0,000
 509,73; 1819,000; 1355,000;    0,000
 510,01; 1896,000; 1561,000;    0,000
 510,29; 2187,000; 1762,000;    0,000
 510,57; 1938,000; 1536,000;    0,000
 510,85; 2411,000; 1862,000;    0,000
 511,13; 2051,000; 1795,000;    0,000
 511,41; 2446,000; 1925,000;    0,000
 511,69; 2209,000; 2082,000;    0,000
 511,97; 2277,000; 2019,000;    0,000
 512,25; 2453,000; 2184,000;    0,000
 512,53; 2287,000; 1794,000;    0,000
 512,81; 2409,000; 2290,000;    0,000
 513,09; 2826,000; 2336,000;    0,000
 513,37; 2176,000; 1747,000;    0,000
 513,65; 2644,000; 2511,000;    0,000
 513,93; 2449,000; 2228,000;    0,000
 514,21; 2818,000; 2416,000;    0,000
 514,48; 2477,000; 2059,000;    0,000
 514,76; 2730,000; 2942,000;    0,000
 515,04; 2812,000; 2545,000;    0,000
 515,32; 3036,000; 3095,000;    0,000
 515,60; 2677,000; 2559,000;    0,000
 515,88; 3122,000; 3136,000;    0,000
 516,16; 2687,000; 2606,000;    0,000
 516,44; 3334,000; 3081,000;    0,000
 516,72; 2906,000; 3141,000;    0,000
 517,00; 3644,000; 3828,000;    0,000
 517,28; 3075,000; 3197,000;    0,000
 517,56; 3603,000; 3820,000;    0,000
 517,84; 3425,000; 3676,000;    0,000
 518,12; 3473,000; 3803,000;    0,000
 518,40; 3588,000; 3627,000;    0,000
 518,68; 3325,000; 3749,000;    0,000
 518,96; 3491,000; 3771,000;    0,000
 519,23; 4380,000; 4397,000;    0,000
 519,51; 4148,000; 4469,000;    0,000
 519,79; 4450,000; 4456,000;    0,000
 520,07; 5112,000; 5776,000;    0,000
 520,35; 4517,000; 4760,000;    0,000
 520,63; 4630,000; 5546,000;    0,000
 520,91; 5000,000; 5251,000;    0,000
 521,19; 4869,000; 5085,000;    0,000
 521,47; 5098,000; 5583,000;    0,000
 521,75; 4836,000; 5677,000;    0,000
 522,03; 5105,000; 5938,000;    0,000
 522,30; 5332,000; 6007,000;    0,000
 522,58; 5428,000; 5977,000;    0,000
 522,86; 5383,000; 6549,000;    0,000
 523,14; 5536,000; 6339,000;    0,000
 523,42; 5482,000; 6334,000;    0,000
 523,70; 5982,000; 6814,000;    0,000
 523,98; 6518,000; 7436,000;    0,000
 524,26; 6361,000; 7677,000;    0,000
 524,54; 7424,000; 8267,000;    0,000
 524,81; 6895,000; 8256,000;    0,000
 525,09; 6821,000; 8178,000;    0,000
 525,37; 6763,000; 7717,000;    0,000
 525,65; 7022,000; 8142,000;    0,000
 525,93; 7474,000; 8888,000;    0,000
 526,21; 7875,000; 8987,000;    0,000
 526,49; 7494,000; 9278,000;    0,000
 526,76; 7591,000; 9214,000;    0,000
 527,04; 8215,000; 9938,000;    0,000
 527,32; 8011,000; 9701,000;    0,000
 527,60; 8671,000;10536,000;    0,000
 527,88; 8487,000;10248,000;    0,000
 528,16; 8719,000;10856,000;    0,000
 528,44; 9005,000;11050,000;    0,000
 528,71; 9243,000;11907,000;    0,000
 528,99; 9173,000;11363,000;    0,000
 529,27; 9323,000;11647,000;    0,000
 529,55; 9653,000;12481,000;    0,000
 529,83;10498,000;12964,000;    0,000
 530,11;10721,000;13649,000;    0,000
 530,38;10284,000;13582,000;    0,000
 530,66;10553,000;13373,000;    0,000
 530,94;10898,000;13937,000;    0,000
 531,22;11995,000;14921,000;    0,000
 531,50;11912,000;15401,000;    0,000
 531,77;11590,000;15630,000;    0,000
 532,05;12524,000;15619,000;    0,000
 532,33;12575,000;15592,000;    0,000
 532,61;12851,000;15765,000;    0,000
 532,89;13542,000;17278,000;    0,000
 533,16;13539,000;17114,000;    0,000
 533,44;13498,000;17187,000;    0,000
 533,72;14135,000;18127,000;    0,000
 534,00;14591,000;18238,000;    0,000
 534,28;14743,000;18714,000;    0,000
 534,55;14857,000;18950,000;    0,000
 534,83;14975,000;19930,000;    0,000
 535,11;16425,000;20731,000;    0,000
 535,39;16145,000;21072,000;    0,000
 535,66;16045,000;21072,000;    0,000
 535,94;16340,000;21364,000;    0,000
 536,22;17153,000;21940,000;    0,000
 536,50;16858,000;22480,000;    0,000
 536,78;17280,000;22709,000;    0,000
 537,05;17992,000;23687,000;    0,000
 537,33;18248,000;23579,000;    0,000
 537,61;18738,000;24523,000;    0,000
 537,89;19079,000;25001,000;    0,000
 538,16;19512,000;25281,000;    0,000
 538,44;19580,000;25983,000;    0,000
 538,72;19966,000;27302,000;    0,000
 539,00;20277,000;26819,000;    0,000
 539,27;20651,000;28171,000;    0,000
 539,55;20922,000;28236,000;    0,000
 539,83;21046,000;29092,000;    0,000
 540,11;20755,000;28720,000;    0,000
 540,38;22430,000;30618,000;    0,000
 540,66;22377,000;31415,000;    0,000
 540,94;22863,000;30709,000;    0,000
 541,21;23097,000;31581,000;    0,000
 541,49;23911,000;31463,000;    0,000
 541,77;24749,000;32646,000;    0,000
 542,05;24618,000;33736,000;    0,000
 542,32;24643,000;34120,000;    0,000
 542,60;25940,000;35301,000;    0,000
 542,88;25723,000;35213,000;    0,000
 543,15;26834,000;35794,000;    0,000
 543,43;26509,000;36443,000;    0,000
 543,71;27537,000;37173,000;    0,000
 543,98;27316,000;37700,000;    0,000
 544,26;27539,000;38589,000;    0,000
 544,54;28585,000;39366,000;    0,000
 544,82;28562,000;39588,000;    0,000
 545,09;29002,000;40032,000;    0,000
 545,37;29144,000;40831,000;    0,000
 545,65;29375,000;41062,000;    0,000
 545,92;30380,000;41476,000;    0,000
 546,20;30131,000;41717,000;    0,000
 546,48;31111,000;42987,000;    0,000
 546,75;31880,000;43555,000;    0,000
 547,03;31755,000;43568,000;    0,000
 547,31;31864,000;44163,000;    0,000
 547,58;32905,000;44851,000;    0,000
 547,86;32773,000;45553,000;    0,000
 548,14;32856,000;46050,000;    0,000
 548,41;33291,000;47173,000;    0,000
 548,69;33934,000;47310,000;    0,000
 548,97;34138,000;47961,000;    0,000
 549,24;34490,000;48039,000;    0,000
 549,52;35494,000;49120,000;    0,000
 549,80;35897,000;49063,000;    0,000
 550,07;35353,000;49890,000;    0,000
 550,35;35497,000;49777,000;    0,000
 550,62;35247,000;50421,000;    0,000
 550,90;36973,000;51281,000;    0,000
 551,18;36546,000;51315,000;    0,000
 551,45;37778,000;52820,000;    0,000
 551,73;37082,000;52194,000;    0,000
 552,01;37641,000;53145,000;    0,000
 552,28;37904,000;53432,000;    0,000
 552,56;38531,000;53936,000;    0,000
 552,83;38563,000;53919,000;    0,000
 553,11;39107,000;54790,000;    0,000
 553,39;39776,000;56254,000;    0,000
 553,66;39542,000;55547,000;    0,000
 553,94;39953,000;54985,000;    0,000
 554,22;40479,000;56210,000;    0,000
 554,49;39657,000;55416,000;    0,000
 554,77;40496,000;56724,000;    0,000
 555,04;40381,000;56291,000;    0,000
 555,32;40458,000;56725,000;    0,000
 555,59;40563,000;57306,000;    0,000
 555,87;41460,000;57517,000;    0,000
 556,15;40940,000;57863,000;    0,000
 556,42;41860,000;57232,000;    0,000
 556,70;41265,000;57520,000;    0,000
 556,97;41443,000;57942,000;    0,000
 557,25;42052,000;57428,000;    0,000
 557,53;42142,000;58122,000;    0,000
 557,80;41560,000;57741,000;    0,000
 558,08;42332,000;58813,000;    0,000
 558,35;42101,000;58584,000;    0,000
 558,63;42810,000;58539,000;    0,000
 558,90;42073,000;58924,000;    0,000
 559,18;42372,000;58423,000;    0,000
 559,45;41888,000;58098,000;    0,000
 559,73;43226,000;58663,000;    0,000
 560,01;42777,000;59019,000;    0,000
 560,28;42536,000;58261,000;    0,000
 560,56;42236,000;59041,000;    0,000
 560,83;43430,000;58234,000;    0,000
 561,11;42645,000;58589,000;    0,000
 561,38;42352,000;58484,000;    0,000
 561,66;43100,000;58334,000;    0,000
 561,93;42746,000;57989,000;    0,000
 562,21;41505,000;57480,000;    0,000
 562,48;41992,000;58567,000;    0,000
 562,76;42658,000;58147,000;    0,000
 563,03;42672,000;57790,000;    0,000
 563,31;42827,000;58248,000;    0,000
 563,58;41980,000;57371,000;    0,000
 563,86;41368,000;56991,000;    0,000
 564,13;42583,000;57768,000;    0,000
 564,41;41296,000;56078,000;    0,000
 564,68;41849,000;55889,000;    0,000
 564,96;42186,000;55503,000;    0,000
 565,23;41650,000;56270,000;    0,000
 565,51;41349,000;54991,000;    0,000
 565,78;41052,000;55314,000;    0,000
 566,06;40486,000;54666,000;    0,000
 566,33;41195,000;55070,000;    0,000
 566,61;41241,000;54876,000;    0,000
 566,88;40464,000;54222,000;    0,000
 567,16;40062,000;53574,000;    0,000
 567,43;39807,000;53802,000;    0,000
 567,71;39329,000;52192,000;    0,000
 567,98;38992,000;52451,000;    0,000
 568,26;38826,000;51768,000;    0,000
 568,53;39227,000;51500,000;    0,000
 568,81;37943,000;51300,000;    0,000
 569,08;38386,000;49963,000;    0,000
 569,36;38424,000;49381,000;    0,000
 569,63;37249,000;49107,000;    0,000
 569,91;37887,000;48993,000;    0,000
 570,18;36955,000;48793,000;    0,000
 570,45;36175,000;48175,000;    0,000
 570,73;36230,000;47853,000;    0,000
 571,00;36066,000;46915,000;    0,000
 571,28;35717,000;46313,000;    0,000
 571,55;35739,000;47116,000;    0,000
 571,83;35521,000;46390,000;    0,000
 572,10;34951,000;45600,000;    0,000
 572,38;34481,000;45434,000;    0,000
 572,65;33598,000;44038,000;    0,000
 572,92;33813,000;43897,000;    0,000
 573,20;34126,000;43456,000;    0,000
 573,47;33181,000;42643,000;    0,000
 573,75;33642,000;41350,000;    0,000
 574,02;32593,000;41856,000;    0,000
 574,29;32006,000;41610,000;    0,000
 574,57;32169,000;39789,000;    0,000
 574,84;32160,000;40617,000;    0,000
 575,12;31543,000;39762,000;    0,000
 575,39;30636,000;39221,000;    0,000
 575,66;30789,000;38302,000;    0,000
 575,94;30306,000;38208,000;    0,000
 576,21;30288,000;36707,000;    0,000
 576,49;29365,000;37170,000;    0,000
 576,76;29306,000;36167,000;    0,000
 577,03;28290,000;35080,000;    0,000
 577,31;28849,000;35565,000;    0,000
 577,58;28518,000;34755,000;    0,000
 577,86;27528,000;34410,000;    0,000
 578,13;27845,000;33671,000;    0,000
 578,40;27297,000;34099,000;    0,000
 578,68;26560,000;32372,000;    0,000
 578,95;27081,000;32100,000;    0,000
 579,22;26412,000;32474,000;    0,000
 579,50;25416,000;30908,000;    0,000
 579,77;24476,000;30321,000;    0,000
 580,05;24440,000;30637,000;    0,000
 580,32;24188,000;29683,000;    0,000
 580,59;23888,000;29998,000;    0,000
 580,87;23826,000;28549,000;    0,000
 581,14;23194,000;28457,000;    0,000
 581,41;22790,000;27574,000;    0,000
 581,69;22614,000;27204,000;    0,000
 581,96;22142,000;27366,000;    0,000
 582,23;22239,000;26801,000;    0,000
 582,51;21275,000;26236,000;    0,000
 582,78;22523,000;26658,000;    0,000
 583,05;20853,000;24697,000;    0,000
 583,33;20823,000;24742,000;    0,000
 583,60;20343,000;23914,000;    0,000
 583,87;20229,000;23819,000;    0,000
 584,15;19651,000;24000,000;    0,000
 584,42;19348,000;22679,000;    0,000
 584,69;19419,000;23158,000;    0,000
 584,96;18907,000;21252,000;    0,000
 585,24;18630,000;21659,000;    0,000
 585,51;18967,000;20901,000;    0,000
 585,78;17522,000;20193,000;    0,000
 586,06;18107,000;20858,000;    0,000
 586,33;17683,000;20471,000;    0,000
 586,60;17115,000;19536,000;    0,000
 586,88;16461,000;19434,000;    0,000
 587,15;16537,000;19385,000;    0,000
 587,42;16209,000;18312,000;    0,000
 587,69;16315,000;18042,000;    0,000
 587,97;15847,000;18361,000;    0,000
 588,24;15934,000;18130,000;    0,000
 588,51;15026,000;17276,000;    0,000
 588,79;15350,000;17153,000;    0,000
 589,06;15337,000;16922,000;    0,000
 589,33;14343,000;16123,000;    0,000
 589,60;14559,000;16020,000;    0,000
 589,88;14075,000;16053,000;    0,000
 590,15;13903,000;16054,000;    0,000
 590,42;13276,000;15120,000;    0,000
 590,69;13637,000;14831,000;    0,000
 590,97;13499,000;14593,000;    0,000
 591,24;13261,000;13726,000;    0,000
 591,51;12583,000;13986,000;    0,000
 591,78;12682,000;13757,000;    0,000
 592,06;12986,000;13626,000;    0,000
 592,33;11759,000;12484,000;    0,000
 592,60;11882,000;13090,000;    0,000
 592,87;11245,000;11836,000;    0,000
 593,15;11601,000;12677,000;    0,000
 593,42;11805,000;12896,000;    0,000
 593,69;11281,000;12169,000;    0,000
 593,96;11261,000;11386,000;    0,000
 594,23;11660,000;12067,000;    0,000
 594,51;10346,000;10434,000;    0,000
 594,78;10898,000;11027,000;    0,000
 595,05; 9964,000;10304,000;    0,000
 595,32; 9982,000;10810,000;    0,000
 595,59; 9614,000;10055,000;    0,000
 595,87; 9525,000; 9682,000;    0,000
 596,14; 9355,000; 9587,000;    0,000
 596,41; 9320,000; 9953,000;    0,000
 596,68; 8889,000; 8896,000;    0,000
 596,95; 9147,000; 9110,000;    0,000
 597,23; 8574,000; 8842,000;    0,000
 597,50; 8581,000; 8770,000;    0,000
 597,77; 8870,000; 9422,000;    0,000
 598,04; 8044,000; 8385,000;    0,000
 598,31; 8787,000; 8634,000;    0,000
 598,59; 8563,000; 8264,000;    0,000
 598,86; 8460,000; 8246,000;    0,000
 599,13; 7385,000; 7076,000;    0,000
 599,40; 7860,000; 8034,000;    0,000
 599,67; 7435,000; 7332,000;    0,000
 599,94; 7247,000; 6949,000;    0,000
 600,22; 7514,000; 7394,000;    0,000
 600,49; 6696,000; 6533,000;    0,000
 600,76; 6584,000; 6472,000;    0,000
 601,03; 6467,000; 6293,000;    0,000
 601,30; 6627,000; 6445,000;    0,000
 601,57; 7047,000; 6366,000;    0,000
 601,84; 7030,000; 7195,000;    0,000
 602,12; 6362,000; 5817,000;    0,000
 602,39; 6241,000; 6101,000;    0,000
 602,66; 6323,000; 6090,000;    0,000
 602,93; 6427,000; 5922,000;    0,000
 603,20; 5965,000; 5601,000;    0,000
 603,47; 6291,000; 5407,000;    0,000
 603,74; 5982,000; 5064,000;    0,000
 604,02; 5957,000; 5534,000;    0,000
 604,29; 5629,000; 5308,000;    0,000
 604,56; 5174,000; 4531,000;    0,000
 604,83; 5287,000; 4773,000;    0,000
 605,10; 5245,000; 4687,000;    0,000
 605,37; 5312,000; 4610,000;    0,000
 605,64; 5348,000; 4767,000;    0,000
 605,91; 5073,000; 4597,000;    0,000
 606,18; 4961,000; 4053,000;    0,000
 606,45; 4732,000; 3789,000;    0,000
 606,73; 4920,000; 4230,000;    0,000
 607,00; 4858,000; 3867,000;    0,000
 607,27; 4364,000; 3567,000;    0,000
 607,54; 4900,000; 3926,000;    0,000
 607,81; 5010,000; 4069,000;    0,000
 608,08; 4398,000; 3474,000;    0,000
 608,35; 4945,000; 3754,000;    0,000
 608,62; 4318,000; 3243,000;    0,000
 608,89; 4546,000; 3472,000;    0,000
 609,16; 4863,000; 3722,000;    0,000
 609,43; 4983,000; 4008,000;    0,000
 609,70; 4454,000; 3498,000;    0,000
 609,97; 3867,000; 2796,000;    0,000
 610,25; 3905,000; 3105,000;    0,000
 610,52; 3903,000; 2654,000;    0,000
 610,79; 3649,000; 2499,000;    0,000
 611,06; 3903,000; 2850,000;    0,000
 611,33; 3449,000; 2639,000;    0,000
 611,60; 4148,000; 3033,000;    0,000
 611,87; 3583,000; 2552,000;    0,000
 612,14; 4146,000; 2518,000;    0,000
 612,41; 3351,000; 2304,000;    0,000
 612,68; 3618,000; 2528,000;    0,000
 612,95; 3416,000; 2372,000;    0,000
 613,22; 3955,000; 2973,000;    0,000
 613,49; 3203,000; 2096,000;    0,000
 613,76; 3691,000; 2197,000;    0,000
 614,03; 3109,000; 1919,000;    0,000
 614,30; 3666,000; 2609,000;    0,000
 614,57; 2975,000; 2096,000;    0,000
 614,84; 3355,000; 2063,000;    0,000
 615,11; 3045,000; 2084,000;    0,000
 615,38; 3206,000; 2004,000;    0,000
 615,65; 3271,000; 2186,000;    0,000
 615,92; 3319,000; 1951,000;    0,000
 616,19; 3037,000; 2017,000;    0,000
 616,46; 3130,000; 1909,000;    0,000
 616,73; 3101,000; 2099,000;    0,000
 617,00; 3309,000; 2336,000;    0,000
 617,27; 3009,000; 2001,000;    0,000
 617,54; 3022,000; 2021,000;    0,000
 617,81; 2363,000; 1678,000;    0,000
 618,08; 2840,000; 1770,000;    0,000
 618,35; 2368,000; 1531,000;    0,000
 618,62; 2966,000; 2073,000;    0,000
 618,89; 2681,000; 1594,000;    0,000
 619,16; 2255,000; 1172,000;    0,000
 619,43; 2518,000; 1380,000;    0,000
 619,70; 2368,000; 1268,000;    0,000
 619,97; 2837,000; 1776,000;    0,000
 620,24; 2818,000; 2004,000;    0,000
 620,51; 2419,000; 1163,000;    0,000
 620,78; 1957,000; 1283,000;    0,000
 621,05; 2092,000; 1443,000;    0,000
 621,32; 2462,000; 1453,000;    0,000
 621,59; 2359,000; 1243,000;    0,000
 621,86; 3009,000; 1914,000;    0,000
 622,12; 2804,000; 1961,000;    0,000
 622,39; 2142,000; 1446,000;    0,000
 622,66; 2193,000; 1118,000;    0,000
 622,93; 1835,000;  870,000;    0,000
 623,20; 1864,000;  946,000;    0,000
 623,47; 1856,000;  905,000;    0,000
 623,74; 1789,000; 1014,000;    0,000
 624,01; 1994,000;  852,000;    0,000
 624,28; 2005,000; 1048,000;    0,000
 624,55; 1846,000;  806,000;    0,000
 624,82; 1834,000;  956,000;    0,000
 625,09; 1848,000;  988,000;    0,000
 625,36; 1859,000; 1091,000;    0,000
 625,62; 2402,000; 1283,000;    0,000
 625,89; 1541,000;  764,000;    0,000
 626,16; 1723,000;  833,000;    0,000
 626,43; 1772,000;  803,000;    0,000
 626,70; 2067,000; 1198,000;    0,000
 626,97; 1785,000;  847,000;    0,000
 627,24; 1966,000;  973,000;    0,000
 627,51; 1149,000;  442,000;    0,000
 627,78; 1798,000;  638,000;    0,000
 628,04; 1905,000; 1074,000;    0,000
 628,31; 1990,000;  742,000;    0,000
 628,58; 2067,000; 1304,000;    0,000
 628,85; 1528,000;  472,000;    0,000
 629,12; 1793,000;  904,000;    0,000
 629,39; 1426,000;  622,000;    0,000
 629,66; 2273,000; 1332,000;    0,000
 629,93; 1905,000;  831,000;    0,000
 630,19; 1354,000;  403,000;    0,000
 630,46; 1504,000;  525,000;    0,000
 630,73; 1415,000;  700,000;    0,000
 631,00; 1662,000;  693,000;    0,000
 631,27; 1506,000;  737,000;    0,000
 631,54; 1179,000;  414,000;    0,000
 631,80; 1370,000;  548,000;    0,000
 632,07; 1227,000;  401,000;    0,000
 632,34; 1405,000;  558,000;    0,000
 632,61; 1469,000;  543,000;    0,000
 632,88; 1257,000;  392,000;    0,000
 633,15; 1645,000;  565,000;    0,000
 633,41; 1469,000;  736,000;    0,000
 633,68; 1568,000;  626,000;    0,000
 633,95; 1344,000;  433,000;    0,000
 634,22; 1460,000;  353,000;    0,000
 634,49; 1074,000;  326,000;    0,000
 634,76; 2190,000; 1167,000;    0,000
 635,02; 1500,000;  446,000;    0,000
 635,29; 1490,000;  567,000;    0,000
 635,56; 1326,000;  464,000;    0,000
 635,83; 1751,000;  898,000;    0,000
 636,10; 1111,000;  233,000;    0,000
 636,36; 1410,000;  724,000;    0,000
 636,63; 1141,000;  301,000;    0,000
 636,90; 1619,000;  773,000;    0,000
 637,17; 1025,000;  230,000;    0,000
 637,43; 1275,000;  199,000;    0,000
 637,70; 1827,000; 1135,000;    0,000
 637,97; 1918,000; 1259,000;    0,000
 638,24; 1717,000;  972,000;    0,000
 638,51; 1048,000;  246,000;    0,000
 638,77; 1541,000;  531,000;    0,000
 639,04; 1803,000;  866,000;    0,000
 639,31; 1451,000;  393,000;    0,000
 639,58; 1382,000;  471,000;    0,000
 639,84; 1314,000;  582,000;    0,000
 640,11; 1294,000;  368,000;    0,000
 640,38; 1249,000;  368,000;    0,000
 640,65; 1793,000;  985,000;    0,000
 640,91; 1547,000;  609,000;    0,000
 641,18; 1311,000;  484,000;    0,000
 641,45; 1807,000;  993,000;    0,000
 641,72; 1436,000;  773,000;    0,000
 641,98; 1262,000;  528,000;    0,000
 642,25; 1435,000;  569,000;    0,000
 642,52; 1105,000;  531,000;    0,000
 642,78; 1239,000;  279,000;    0,000
 643,05; 1372,000;  602,000;    0,000
 643,32; 1449,000;  669,000;    0,000
 643,59; 1059,000;  244,000;    0,000
 643,85; 1344,000;  476,000;    0,000
 644,12; 1509,000;  653,000;    0,000
 644,39; 1204,000;  258,000;    0,000
 644,65; 1312,000;  538,000;    0,000
 644,92; 1141,000;  235,000;    0,000
 645,19; 1528,000;  519,000;    0,000
 645,46; 1688,000;  703,000;    0,000
 645,72; 1374,000;  644,000;    0,000
 645,99; 1562,000;  598,000;    0,000
 646,26;  892,000;  113,000;    0,000
 646,52; 1372,000;  574,000;    0,000
 646,79;  894,000;  217,000;    0,000
 647,06; 1581,000;  653,000;    0,000
 647,32; 1213,000;  466,000;    0,000
 647,59; 2172,000; 1007,000;    0,000
 647,86; 1922,000; 1024,000;    0,000
 648,12; 1331,000;  547,000;    0,000
 648,39; 1274,000;  604,000;    0,000
 648,66; 1610,000;  578,000;    0,000
 648,92; 1160,000;  237,000;    0,000
 649,19; 1851,000; 1025,000;    0,000
 649,46; 1315,000;  341,000;    0,000
 649,72; 1747,000; 1007,000;    0,000
 649,99; 1151,000;  402,000;    0,000
 650,26; 1420,000;  611,000;    0,000
 650,52; 1439,000;  806,000;    0,000
 650,79; 1123,000;  453,000;    0,000
 651,06; 1619,000;  849,000;    0,000
 651,32; 1131,000;  392,000;    0,000
 651,59;  960,000;   85,000;    0,000
 651,85; 1349,000;  526,000;    0,000
 652,12; 1131,000;  424,000;    0,000
 652,39; 1389,000;  519,000;    0,000
 652,65; 1311,000;  579,000;    0,000
 652,92; 1706,000;  967,000;    0,000
 653,19; 1782,000;  852,000;    0,000
 653,45; 1321,000;  677,000;    0,000
 653,72; 1244,000;  659,000;    0,000
 653,98; 1517,000;  756,000;    0,000
 654,25; 1569,000; 1337,000;    0,000
 654,52; 1875,000; 1223,000;    0,000
 654,78; 1564,000; 1032,000;    0,000
 655,05; 1958,000; 1120,000;    0,000
 655,31; 1794,000; 1275,000;    0,000
 655,58; 1552,000;  761,000;    0,000
 655,85; 1243,000;  681,000;    0,000
 656,11; 1416,000;  613,000;    0,000
 656,38; 1571,000;  611,000;    0,000
 656,64; 1503,000;  542,000;    0,000
 656,91; 1988,000; 1120,000;    0,000
 657,18; 1179,000;  571,000;    0,000
 657,44; 1300,000;  482,000;    0,000
 657,71; 1145,000;  432,000;    0,000
 657,97; 1119,000;  608,000;    0,000
 658,24; 1818,000; 1125,000;    0,000
 658,50; 1665,000;  853,000;    0,000
 658,77; 1722,000; 1054,000;    0,000
 659,03; 1400,000;  777,000;    0,000
 659,30; 2009,000; 1209,000;    0,000
 659,57; 1445,000;  562,000;    0,000
 659,83; 1292,000;  573,000;    0,000
 660,10; 1851,000;  994,000;    0,000
 660,36; 1556,000;  747,000;    0,000
 660,63; 1394,000;  836,000;    0,000
 660,89; 1456,000;  582,000;    0,000
 661,16; 1526,000;  894,000;    0,000
 661,42; 1955,000; 1012,000;    0,000
 661,69; 1630,000;  841,000;    0,000
 661,95; 1297,000;  733,000;    0,000
 662,22; 1420,000;  612,000;    0,000
 662,48; 1755,000; 1048,000;    0,000
 662,75; 1455,000;  855,000;    0,000
 663,01; 2067,000; 1107,000;    0,000
 663,28; 1504,000;  972,000;    0,000
 663,54; 1714,000; 1025,000;    0,000
 663,81; 1971,000; 1005,000;    0,000
 664,07; 1877,000; 1194,000;    0,000
 664,34; 2143,000; 1365,000;    0,000
 664,60; 4038,000; 3039,000;    0,000
 664,87; 1509,000;  894,000;    0,000
 665,13; 2127,000; 1071,000;    0,000
 665,40; 1856,000;  944,000;    0,000
 665,66; 1551,000;  763,000;    0,000
 665,93; 1777,000;  933,000;    0,000
 666,19; 2762,000; 1824,000;    0,000
 666,46; 2073,000; 1375,000;    0,000
 666,72; 1984,000; 1385,000;    0,000
 666,99; 1469,000;  655,000;    0,000
 667,25; 1762,000; 1129,000;    0,000
 667,52; 1853,000; 1091,000;    0,000
 667,78; 1560,000;  762,000;    0,000
 668,05; 2020,000; 1344,000;    0,000
 668,31; 1930,000; 1198,000;    0,000
 668,57; 1993,000; 1416,000;    0,000
 668,84; 2424,000; 1686,000;    0,000
 669,10; 2236,000; 1348,000;    0,000
 669,37; 1790,000; 1169,000;    0,000
 669,63; 1579,000; 1048,000;    0,000
 669,90; 1754,000;  943,000;    0,000
 670,16; 2094,000; 1442,000;    0,000
 670,43; 2138,000; 1157,000;    0,000
 670,69; 2319,000; 1800,000;    0,000
 670,95; 1843,000;  993,000;    0,000
 671,22; 1953,000; 1113,000;    0,000
 671,48; 2061,000; 1256,000;    0,000
 671,75; 2181,000; 1396,000;    0,000
 672,01; 2077,000; 1173,000;    0,000
 672,28; 1429,000; 1042,000;    0,000
 672,54; 1758,000; 1051,000;    0,000
 672,80; 2316,000; 1603,000;    0,000
 673,07; 1956,000; 1241,000;    0,000
 673,33; 1566,000; 1100,000;    0,000
 673,60; 1742,000; 1222,000;    0,000
 673,86; 1777,000; 1331,000;    0,000
 674,12; 2340,000; 1454,000;    0,000
 674,39; 2502,000; 1786,000;    0,000
 674,65; 2167,000; 1363,000;    0,000
 674,91; 1917,000; 1258,000;    0,000
 675,18; 1972,000; 1120,000;    0,000
 675,44; 2240,000; 1654,000;    0,000
 675,71; 1953,000; 1314,000;    0,000
 675,97; 1943,000; 1213,000;    0,000
 676,23; 2226,000; 1344,000;    0,000
 676,50; 1886,000; 1081,000;    0,000
 676,76; 2146,000; 1286,000;    0,000
 677,02; 1748,000;  986,000;    0,000
 677,29; 2229,000; 1389,000;    0,000
 677,55; 1789,000; 1243,000;    0,000
 677,81; 2183,000; 1367,000;    0,000
 678,08; 1883,000; 1174,000;    0,000
 678,34; 2488,000; 1622,000;    0,000
 678,61; 1718,000; 1064,000;    0,000
 678,87; 2242,000; 1382,000;    0,000
 679,13; 1707,000;  957,000;    0,000
 679,40; 2113,000; 1342,000;    0,000
 679,66; 1754,000; 1264,000;    0,000
 679,92; 1877,000; 1195,000;    0,000
 680,18; 2155,000; 1392,000;    0,000
 680,45; 2165,000; 1463,000;    0,000
 680,71; 1762,000; 1208,000;    0,000
 680,97; 1869,000;  967,000;    0,000
 681,24; 1772,000; 1171,000;    0,000
 681,50; 2715,000; 2081,000;    0,000
 681,76; 2092,000; 1433,000;    0,000
 682,03; 2037,000; 1431,000;    0,000
 682,29; 1908,000; 1003,000;    0,000
 682,55; 2022,000; 1444,000;    0,000
 682,82; 2029,000; 1362,000;    0,000
 683,08; 2296,000; 1591,000;    0,000
 683,34; 1992,000; 1237,000;    0,000
 683,60; 2228,000; 1512,000;    0,000
 683,87; 2225,000; 1557,000;    0,000
 684,13; 2422,000; 1734,000;    0,000
 684,39; 1962,000; 1433,000;    0,000
 684,66; 2458,000; 1789,000;    0,000
 684,92; 2000,000; 1443,000;    0,000
 685,18; 1968,000; 1331,000;    0,000
 685,44; 2347,000; 1762,000;    0,000
 685,71; 2141,000; 1505,000;    0,000
 685,97; 2237,000; 1726,000;    0,000
 686,23; 1988,000; 1438,000;    0,000
 686,49; 2008,000; 1381,000;    0,000
 686,76; 1793,000; 1258,000;    0,000
 687,02; 1874,000; 1354,000;    0,000
 687,28; 1714,000; 1184,000;    0,000
 687,54; 2154,000; 1316,000;    0,000
 687,81; 2022,000; 1455,000;    0,000
 688,07; 1784,000; 1284,000;    0,000
 688,33; 1769,000; 1114,000;    0,000
 688,59; 2167,000; 1583,000;    0,000
 688,86; 2479,000; 1763,000;    0,000
 689,12; 1917,000; 1357,000;    0,000
 689,38; 2086,000; 1347,000;    0,000
 689,64; 1522,000; 1388,000;    0,000
 689,90; 2305,000; 1672,000;    0,000
 690,17; 2265,000; 1853,000;    0,000
 690,43; 1700,000; 1303,000;    0,000
 690,69; 1721,000; 1241,000;    0,000
 690,95; 1973,000; 1533,000;    0,000
 691,22; 2322,000; 1789,000;    0,000
 691,48; 1962,000; 1537,000;    0,000
 691,74; 1914,000; 1387,000;    0,000
 692,00; 1944,000; 1457,000;    0,000
 692,26; 1946,000; 1682,000;    0,000
 692,52; 2539,000; 1789,000;    0,000
 692,79; 1965,000; 1496,000;    0,000
 693,05; 2297,000; 1482,000;    0,000
 693,31; 2292,000; 1702,000;    0,000
 693,57; 2155,000; 1672,000;    0,000
 693,83; 2105,000; 1460,000;    0,000
 694,10; 2116,000; 1659,000;    0,000
 694,36; 2462,000; 1882,000;    0,000
 694,62; 1948,000; 1458,000;    0,000
 694,88; 2147,000; 1651,000;    0,000
 695,14; 2486,000; 2099,000;    0,000
 695,40; 2022,000; 1553,000;    0,000
 695,67; 2279,000; 1466,000;    0,000
 695,93; 2920,000; 2628,000;    0,000
 696,19; 2889,000; 2034,000;    0,000
 696,45; 1911,000; 1813,000;    0,000
 696,71; 2627,000; 2091,000;    0,000
 696,97; 1901,000; 1504,000;    0,000
 697,23; 2480,000; 1991,000;    0,000
 697,49; 2132,000; 1660,000;    0,000
 697,76; 2261,000; 1647,000;    0,000
 698,02; 2235,000; 1849,000;    0,000
 698,28; 2110,000; 1553,000;    0,000
 698,54; 2346,000; 1759,000;    0,000
 698,80; 2280,000; 1653,000;    0,000
 699,06; 1968,000; 1805,000;    0,000
 699,32; 2525,000; 1869,000;    0,000
 699,58; 2071,000; 1498,000;    0,000
 699,85; 2635,000; 1916,000;    0,000
 700,11; 1870,000; 1494,000;    0,000
 700,37; 2102,000; 1647,000;    0,000
 700,63; 2228,000; 1990,000;    0,000
 700,89; 2295,000; 1968,000;    0,000
 701,15; 2353,000; 1943,000;    0,000
 701,41; 2511,000; 1854,000;    0,000
 701,67; 2049,000; 1617,000;    0,000
 701,93; 2552,000; 1936,000;    0,000
 702,19; 2135,000; 1895,000;    0,000
 702,45; 2296,000; 1770,000;    0,000
 702,72; 2611,000; 2182,000;    0,000
 702,98; 2664,000; 2353,000;    0,000
 703,24; 2156,000; 1777,000;    0,000
 703,50; 2619,000; 2402,000;    0,000
 703,76; 2284,000; 1928,000;    0,000
 704,02; 2681,000; 2276,000;    0,000
 704,28; 1916,000; 1610,000;    0,000
 704,54; 2532,000; 2275,000;    0,000
 704,80; 2225,000; 1726,000;    0,000
 705,06; 2644,000; 2129,000;    0,000
 705,32; 2112,000; 1853,000;    0,000
 705,58; 2532,000; 2226,000;    0,000
 705,84; 2376,000; 1865,000;    0,000
 706,10; 2750,000; 2312,000;    0,000
 706,36; 3328,000; 2994,000;    0,000
 706,62; 2874,000; 2603,000;    0,000
 706,88; 2424,000; 1914,000;    0,000
 707,14; 2836,000; 2221,000;    0,000
 707,40; 2109,000; 1721,000;    0,000
 707,66; 2146,000; 1796,000;    0,000
 707,92; 2407,000; 1997,000;    0,000
 708,18; 2350,000; 1940,000;    0,000
 708,44; 1964,000; 1530,000;    0,000
 708,70; 2292,000; 1977,000;    0,000
 708,96; 2299,000; 2219,000;    0,000
 709,22; 2799,000; 2281,000;    0,000
 709,48; 2627,000; 2227,000;    0,000
 709,74; 2938,000; 2698,000;    0,000
 710,00; 2808,000; 2192,000;    0,000
 710,26; 2135,000; 1858,000;    0,000
 710,52; 1943,000; 1566,000;    0,000
 710,78; 2395,000; 1858,000;    0,000
 711,04; 2271,000; 2040,000;    0,000
 711,30; 2034,000; 1449,000;    0,000
 711,56; 2003,000; 1758,000;    0,000
 711,82; 2825,000; 2394,000;    0,000
 712,08; 2083,000; 1452,000;    0,000
 712,34; 2817,000; 2633,000;    0,000
 712,60; 3321,000; 2734,000;    0,000
 712,86; 2691,000; 2306,000;    0,000
 713,12; 2728,000; 2352,000;    0,000
 713,38; 1949,000; 1535,000;    0,000
 713,64; 2332,000; 1774,000;    0,000
 713,90; 2304,000; 1738,000;    0,000
 714,16; 1973,000; 1646,000;    0,000
 714,42; 2116,000; 1799,000;    0,000
 714,68; 2578,000; 2275,000;    0,000
 714,94; 2776,000; 2378,000;    0,000
 715,20; 2396,000; 1936,000;    0,000
 715,45; 2190,000; 1814,000;    0,000
 715,71; 2228,000; 1979,000;    0,000
 715,97; 1775,000; 1702,000;    0,000
 716,23; 2494,000; 2300,000;    0,000
 716,49; 2384,000; 2311,000;    0,000
 716,75; 1847,000; 1566,000;    0,000
 717,01; 2270,000; 2094,000;    0,000
 717,27; 1995,000; 1644,000;    0,000
 717,53; 2921,000; 2251,000;    0,000
 717,79; 2042,000; 1599,000;    0,000
 718,05; 3169,000; 2878,000;    0,000
 718,31; 1819,000; 1592,000;    0,000
 718,56; 2007,000; 1887,000;    0,000
 718,82; 2126,000; 1847,000;    0,000
 719,08; 2191,000; 1816,000;    0,000
 719,34; 1948,000; 1324,000;    0,000
 719,60; 2211,000; 1967,000;    0,000
 719,86; 1743,000; 1651,000;    0,000
 720,12; 1715,000; 1424,000;    0,000
 720,38; 2145,000; 1749,000;    0,000
 720,63; 2826,000; 2537,000;    0,000
 720,89; 2443,000; 2445,000;    0,000
 721,15; 2271,000; 2174,000;    0,000
 721,41; 1599,000; 1509,000;    0,000
 721,67; 1988,000; 1695,000;    0,000
 721,93; 2331,000; 2046,000;    0,000
 722,19; 2027,000; 1999,000;    0,000
 722,44; 2063,000; 2024,000;    0,000
 722,70; 2343,000; 1975,000;    0,000
 722,96; 2160,000; 2057,000;    0,000
 723,22; 2161,000; 1948,000;    0,000
 723,48; 1839,000; 1729,000;    0,000
 723,74; 2489,000; 2315,000;    0,000
 723,99; 2125,000; 2253,000;    0,000
 724,25; 2634,000; 2555,000;    0,000
 724,51; 2312,000; 2325,000;    0,000
 724,77; 2327,000; 2125,000;    0,000
 725,03; 2292,000; 2249,000;    0,000
 725,29; 2158,000; 1923,000;    0,000
 725,54; 2131,000; 2259,000;    0,000
 725,80; 2368,000; 2285,000;    0,000
 726,06; 2117,000; 1900,000;    0,000
 726,32; 1750,000; 1833,000;    0,000
 726,58; 2383,000; 2285,000;    0,000
 726,83; 2313,000; 2360,000;    0,000
 727,09; 2194,000; 2354,000;    0,000
 727,35; 2208,000; 2205,000;    0,000
 727,61; 2079,000; 2008,000;    0,000
 727,87; 2143,000; 2109,000;    0,000
 728,12; 2472,000; 2389,000;    0,000
 728,38; 2475,000; 2440,000;    0,000
 728,64; 2360,000; 2580,000;    0,000
 728,90; 2525,000; 2413,000;    0,000
 729,15; 1931,000; 2096,000;    0,000
 729,41; 2314,000; 2385,000;    0,000
 729,67; 2859,000; 2933,000;    0,000
 729,93; 2370,000; 2181,000;    0,000
 730,18; 1830,000; 2004,000;    0,000
 730,44; 2609,000; 2219,000;    0,000
 730,70; 1985,000; 1932,000;    0,000
 730,96; 2505,000; 2281,000;    0,000
 731,21; 1879,000; 1992,000;    0,000
 731,47; 2823,000; 2679,000;    0,000
 731,73; 2172,000; 2405,000;    0,000
 731,99; 2718,000; 3041,000;    0,000
 732,24; 2412,000; 2618,000;    0,000
 732,50; 2711,000; 2797,000;    0,000
 732,76; 2075,000; 2457,000;    0,000
 733,02; 2668,000; 3119,000;    0,000
 733,27; 2621,000; 3028,000;    0,000
 733,53; 2370,000; 2718,000;    0,000
 733,79; 2839,000; 3222,000;    0,000
 734,04; 2047,000; 2725,000;    0,000
 734,30; 2544,000; 2751,000;    0,000
 734,56; 2542,000; 2683,000;    0,000
 734,82; 2255,000; 2596,000;    0,000
 735,07; 2465,000; 2928,000;    0,000
 735,33; 2145,000; 2530,000;    0,000
 735,59; 3210,000; 3308,000;    0,000
 735,84; 2783,000; 3215,000;    0,000
 736,10; 2285,000; 2673,000;    0,000
 736,36; 2576,000; 2739,000;    0,000
 736,61; 2588,000; 3064,000;    0,000
 736,87; 1849,000; 2389,000;    0,000
 737,13; 1777,000; 2402,000;    0,000
 737,38; 1778,000; 2270,000;    0,000
 737,64; 2134,000; 2428,000;    0,000
 737,90; 2040,000; 2403,000;    0,000
 738,15; 2516,000; 2815,000;    0,000
 738,41; 2166,000; 2882,000;    0,000
 738,67; 1879,000; 2260,000;    0,000
 738,92; 1985,000; 2379,000;    0,000
 739,18; 2190,000; 2968,000;    0,000
 739,44; 2248,000; 2651,000;    0,000
 739,69; 2021,000; 2540,000;    0,000
 739,95; 1905,000; 2313,000;    0,000
 740,21; 2294,000; 2756,000;    0,000
 740,46; 1783,000; 2407,000;    0,000
 740,72; 2166,000; 2500,000;    0,000
 740,98; 1984,000; 2835,000;    0,000
 741,23; 1722,000; 2321,000;    0,000
 741,49; 2173,000; 2739,000;    0,000
 741,74; 2103,000; 2434,000;    0,000
 742,00; 1909,000; 1951,000;    0,000
 742,26; 1648,000; 2156,000;    0,000
 742,51; 1751,000; 1986,000;    0,000
 742,77; 1470,000; 1810,000;    0,000
 743,02; 1865,000; 2234,000;    0,000
 743,28; 1468,000; 1586,000;    0,000
 743,54; 1590,000; 1781,000;    0,000
 743,79; 1873,000; 2300,000;    0,000
 744,05; 1655,000; 1958,000;    0,000
 744,30; 1692,000; 2212,000;    0,000
 744,56; 1818,000; 2330,000;    0,000
 744,82; 1311,000; 1915,000;    0,000
 745,07; 1616,000; 2491,000;    0,000
 745,33; 1511,000; 2316,000;    0,000
 745,58; 1760,000; 2637,000;    0,000
 745,84; 1745,000; 2676,000;    0,000
 746,09; 1813,000; 2975,000;    0,000
 746,35; 1820,000; 2746,000;    0,000
 746,61; 1869,000; 3067,000;    0,000
 746,86; 1498,000; 2669,000;    0,000
 747,12; 1872,000; 3123,000;    0,000
 747,37; 2104,000; 3450,000;    0,000
 747,63; 1604,000; 3184,000;    0,000
 747,88; 2098,000; 3676,000;    0,000
 748,14; 1883,000; 3408,000;    0,000
 748,39; 1888,000; 3290,000;    0,000
 748,65; 1714,000; 3370,000;    0,000
 748,91; 1856,000; 3157,000;    0,000
 749,16; 1379,000; 3003,000;    0,000
 749,42; 2331,000; 3463,000;    0,000
 749,67; 2000,000; 3144,000;    0,000
 749,93; 1865,000; 3246,000;    0,000
 750,18; 1780,000; 3578,000;    0,000
 750,44; 2403,000; 4068,000;    0,000
 750,69; 1939,000; 3439,000;    0,000
 750,95; 2314,000; 3667,000;    0,000
 751,20; 1884,000; 3504,000;    0,000
 751,46; 1958,000; 3356,000;    0,000
 751,71; 1997,000; 3731,000;    0,000
 751,97; 1943,000; 3596,000;    0,000
 752,22; 1447,000; 3055,000;    0,000
 752,48; 1744,000; 2901,000;    0,000
 752,73; 2519,000; 4101,000;    0,000
 752,99; 1562,000; 2790,000;    0,000
 753,24; 1405,000; 2895,000;    0,000
 753,50; 2133,000; 3368,000;    0,000
 753,75; 2572,000; 3806,000;    0,000
 754,01; 1579,000; 2547,000;    0,000
 754,26; 1483,000; 2754,000;    0,000
 754,51; 1840,000; 3080,000;    0,000
 754,77; 1656,000; 2813,000;    0,000
 755,02; 1454,000; 2336,000;    0,000
 755,28; 1615,000; 2551,000;    0,000
 755,53; 1205,000; 2074,000;    0,000
 755,79; 1132,000; 2183,000;    0,000
 756,04; 1572,000; 2469,000;    0,000
 756,30; 1369,000; 2029,000;    0,000
 756,55; 1273,000; 2124,000;    0,000
 756,81; 1176,000; 2284,000;    0,000
 757,06; 1626,000; 3036,000;    0,000
 757,31;  696,000; 2262,000;    0,000
 757,57; 1032,000; 2305,000;    0,000
 757,82; 1210,000; 2727,000;    0,000
 758,08; 1078,000; 2417,000;    0,000
 758,33; 1103,000; 2733,000;    0,000
 758,59; 1230,000; 2994,000;    0,000
 758,84; 1038,000; 2876,000;    0,000
 759,09; 1221,000; 2738,000;    0,000
 759,35; 1009,000; 2708,000;    0,000
 759,60; 1445,000; 3403,000;    0,000
 759,86; 1465,000; 3882,000;    0,000
 760,11; 1703,000; 3843,000;    0,000
 760,36; 1328,000; 3480,000;    0,000
 760,62; 1166,000; 3507,000;    0,000
 760,87; 1172,000; 3591,000;    0,000
 761,13; 1010,000; 3560,000;    0,000
 761,38; 1537,000; 4159,000;    0,000
 761,63; 1356,000; 3781,000;    0,000
 761,89; 1223,000; 3875,000;    0,000
 762,14; 1846,000; 4452,000;    0,000
 762,39; 1155,000; 3599,000;    0,000
 762,65; 1652,000; 4038,000;    0,000
 762,90; 1238,000; 4110,000;    0,000
 763,16; 1643,000; 4216,000;    0,000
 763,41; 1143,000; 3939,000;    0,000
 763,66;  997,000; 3574,000;    0,000
 763,92; 1628,000; 4298,000;    0,000
 764,17; 1151,000; 3874,000;    0,000
 764,42; 1323,000; 3903,000;    0,000
 764,68; 1517,000; 4068,000;    0,000
 764,93; 1100,000; 3610,000;    0,000
 765,18;  964,000; 3538,000;    0,000
 765,44;  951,000; 3528,000;    0,000
 765,69; 2105,000; 4890,000;    0,000
 765,94;  886,000; 3677,000;    0,000
 766,20; 1828,000; 4772,000;    0,000
 766,45; 1332,000; 4354,000;    0,000
 766,70; 1605,000; 4289,000;    0,000
 766,96; 1128,000; 3930,000;    0,000
 767,21; 1703,000; 4269,000;    0,000
 767,46;  870,000; 3623,000;    0,000
 767,72; 1508,000; 3920,000;    0,000
 767,97; 1020,000; 3756,000;    0,000
 768,22; 1088,000; 3730,000;    0,000
 768,47; 1471,000; 3882,000;    0,000
 768,73; 1331,000; 3580,000;    0,000
 768,98;  984,000; 3037,000;    0,000
 769,23;  984,000; 3073,000;    0,000
 769,49; 1104,000; 3018,000;    0,000
 769,74;  963,000; 2530,000;    0,000
 769,99;  945,000; 2185,000;    0,000
 770,24; 1070,000; 2503,000;    0,000
 770,50; 1068,000; 2200,000;    0,000
 770,75; 1136,000; 2422,000;    0,000
 771,00;  949,000; 2268,000;    0,000
 771,25;  646,000; 1677,000;    0,000
 771,51;  829,000; 1959,000;    0,000
 771,76; 1060,000; 1765,000;    0,000
 772,01; 1030,000; 2076,000;    0,000
 772,26;  596,000; 1755,000;    0,000
 772,52;  523,000; 1750,000;    0,000
 772,77;  488,000; 1570,000;    0,000
 773,02;  688,000; 1720,000;    0,000
 773,27;  839,000; 1931,000;    0,000
 773,53;  648,000; 1887,000;    0,000
 773,78;  933,000; 1982,000;    0,000
 774,03;  316,000; 1466,000;    0,000
 774,28;  548,000; 2081,000;    0,000
 774,54;  711,000; 1851,000;    0,000
 774,79;  640,000; 1866,000;    0,000
 775,04;  748,000; 1966,000;    0,000
 775,29;  752,000; 1736,000;    0,000
 775,54;  182,000; 1122,000;    0,000
 775,80;  481,000; 1476,000;    0,000
 776,05;  196,000; 1286,000;    0,000
 776,30;  614,000; 1496,000;    0,000
 776,55;  768,000; 1637,000;    0,000
 776,80; 1057,000; 1880,000;    0,000
 777,06;  482,000; 1245,000;    0,000
 777,31; 1026,000; 1748,000;    0,000
 777,56;  139,000;  687,000;    0,000
 777,81;  394,000; 1099,000;    0,000
 778,06;  216,000;  649,000;    0,000
 778,32;  881,000; 1343,000;    0,000
 778,57;  627,000;  805,000;    0,000
 778,82;  263,000;  504,000;    0,000
 779,07;  -13,000;  265,000;    0,000
 779,32;  222,000;  267,000;    0,000
 779,57; -112,000;   87,000;    0,000
 779,83;    7,000;  201,000;    0,000
 780,08;   97,000;  297,000;    0,000
 780,33;  451,000;  505,000;    0,000
 780,58;  647,000;  857,000;    0,000
 780,83;  492,000;  556,000;    0,000
 781,08;  461,000;  556,000;    0,000
 781,33;  310,000;  447,000;    0,000
 781,59;  -41,000;  -18,000;    0,000
 781,84;   23,000;  179,000;    0,000
 782,09;   62,000;  241,000;    0,000
 782,34;  -70,000;   95,000;    0,000
 782,59;   87,000;  257,000;    0,000
 782,84;  561,000;  706,000;    0,000
 783,09;  177,000;  359,000;    0,000
 783,34;  619,000;  769,000;    0,000
 783,59;  165,000;  301,000;    0,000
 783,85;   85,000;  223,000;    0,000
 784,10;   -6,000;  104,000;    0,000
 784,35;  584,000;  734,000;    0,000
 784,60;  305,000;  388,000;    0,000
 784,85;  210,000;  405,000;    0,000
 785,10;  216,000;  507,000;    0,000
 785,35;  -33,000;  171,000;    0,000
 785,60; -204,000;  -24,000;    0,000
 785,85;  708,000;  577,000;    0,000
 786,10;  315,000;  330,000;    0,000
 786,35; 1258,000; 1314,000;    0,000
 786,61;  685,000;  959,000;    0,000
 786,86;  322,000;  529,000;    0,000
 787,11;  -72,000;  282,000;    0,000
 787,36;  865,000; 1014,000;    0,000
 787,61;  319,000;  608,000;    0,000
 787,86;  194,000;  408,000;    0,000
 788,11;  247,000;  612,000;    0,000
 788,36;  116,000;  436,000;    0,000
 788,61;   56,000;  618,000;    0,000
 788,86;  427,000;  875,000;    0,000
 789,11;  175,000;  923,000;    0,000
 789,36;  131,000;  723,000;    0,000
 789,61;  122,000;  895,000;    0,000
 789,86;  510,000; 1276,000;    0,000
 790,11;  207,000; 1121,000;    0,000
 790,36;  415,000; 1116,000;    0,000
 790,61;   67,000;  901,000;    0,000
 790,86;  -39,000; 1014,000;    0,000
 791,11;  425,000; 1447,000;    0,000
 791,36;  303,000; 1213,000;    0,000
 791,61;  323,000; 1443,000;    0,000
 791,86;  353,000; 1279,000;    0,000
 792,11;  570,000; 1636,000;    0,000
 792,36;   10,000; 1194,000;    0,000
 792,61;  529,000; 1704,000;    0,000
 792,86;  363,000; 1466,000;    0,000
 793,11;  618,000; 1887,000;    0,000
 793,36;   25,000; 1127,000;    0,000
 793,61;   81,000; 1230,000;    0,000
 793,86;  496,000; 1613,000;    0,000
 794,11;  197,000; 1310,000;    0,000
 794,36;  555,000; 1610,000;    0,000
 794,61;  448,000; 1915,000;    0,000
 794,86;  436,000; 1992,000;    0,000
 795,11;  278,000; 2018,000;    0,000
 795,36;  706,000; 2376,000;    0,000
 795,61;  299,000; 2436,000;    0,000
 795,86;  738,000; 2556,000;    0,000
 796,11;  546,000; 2457,000;    0,000
 796,36;  645,000; 2548,000;    0,000
 796,61;  645,000; 2823,000;    0,000
 796,86;  519,000; 2599,000;    0,000
 797,11;  305,000; 2489,000;    0,000
 797,36;  895,000; 3079,000;    0,000
 797,60;  162,000; 2595,000;    0,000
 797,85;  642,000; 3166,000;    0,000
 798,10;  927,000; 3433,000;    0,000
 798,35;  390,000; 2619,000;    0,000
 798,60;  775,000; 3061,000;    0,000
 798,85;  623,000; 2954,000;    0,000
 799,10; 1305,000; 3524,000;    0,000
 799,35;  649,000; 2893,000;    0,000
 799,60;  463,000; 3003,000;    0,000
 799,85;  833,000; 3193,000;    0,000
 800,10;  311,000; 2512,000;    0,000
 800,34;  242,000; 2327,000;    0,000
 800,59;  174,000; 2292,000;    0,000
 800,84;  245,000; 2184,000;    0,000
 801,09;  756,000; 2768,000;    0,000
 801,34;  835,000; 2835,000;    0,000
 801,59;  319,000; 2169,000;    0,000
 801,84;  669,000; 2361,000;    0,000
 802,09;  284,000; 2103,000;    0,000
 802,34;  354,000; 2045,000;    0,000
 802,58;  155,000; 1925,000;    0,000
 802,83;  829,000; 2299,000;    0,000
 803,08;  134,000; 1954,000;    0,000
 803,33;  508,000; 2216,000;    0,000
 803,58;  351,000; 2384,000;    0,000
 803,83;  635,000; 2719,000;    0,000
 804,08;  218,000; 2447,000;    0,000
 804,32; 1679,000; 3912,000;    0,000
 804,57;  620,000; 3065,000;    0,000
 804,82;  529,000; 3231,000;    0,000
 805,07;  459,000; 3501,000;    0,000
 805,32;  835,000; 4108,000;    0,000
 805,57;  833,000; 4379,000;    0,000
 805,81;  822,000; 4443,000;    0,000
 806,06;  840,000; 4791,000;    0,000
 806,31;  641,000; 4369,000;    0,000
 806,56;  749,000; 4769,000;    0,000
 806,81;  942,000; 5134,000;    0,000
 807,05;  529,000; 4781,000;    0,000
 807,30; 1358,000; 5504,000;    0,000
 807,55; 1336,000; 5770,000;    0,000
 807,80;  702,000; 5047,000;    0,000
 808,05;  853,000; 5154,000;    0,000
 808,29; 1154,000; 5855,000;    0,000
 808,54; 1223,000; 5809,000;    0,000
 808,79; 1364,000; 5958,000;    0,000
 809,04;  925,000; 5653,000;    0,000
 809,29; 1034,000; 5808,000;    0,000
 809,53;  749,000; 5671,000;    0,000
 809,78; 1427,000; 6089,000;    0,000
 810,03; 1024,000; 5852,000;    0,000
 810,28;  960,000; 5851,000;    0,000
 810,52;  871,000; 5809,000;    0,000
 810,77;  904,000; 5702,000;    0,000
 811,02; 1623,000; 6390,000;    0,000
 811,27; 1058,000; 5757,000;    0,000
 811,51; 1144,000; 6167,000;    0,000
 811,76;  859,000; 6005,000;    0,000
 812,01;  604,000; 5648,000;    0,000
 812,26; 1313,000; 6118,000;    0,000
 812,50;  723,000; 5606,000;    0,000
 812,75;  660,000; 5310,000;    0,000
 813,00;  833,000; 5520,000;    0,000
 813,25; 1268,000; 5629,000;    0,000
 813,49;  612,000; 5186,000;    0,000
 813,74;  973,000; 5256,000;    0,000
 813,99;  950,000; 5192,000;    0,000
 814,23; 1462,000; 5689,000;    0,000
 814,48; 1252,000; 5716,000;    0,000
 814,73;  818,000; 5030,000;    0,000
 814,98;  570,000; 4597,000;    0,000
 815,22;  925,000; 4867,000;    0,000
 815,47;  457,000; 3816,000;    0,000
 815,72;  982,000; 3887,000;    0,000
 815,96;  699,000; 3778,000;    0,000
 816,21;  435,000; 3047,000;    0,000
 816,46;  160,000; 2695,000;    0,000
 816,70;  866,000; 3019,000;    0,000
 816,95;  123,000; 2181,000;    0,000
 817,20;  455,000; 1874,000;    0,000
 817,44;  -39,000; 1423,000;    0,000
 817,69;  190,000; 1062,000;    0,000
 817,94;  479,000; 1045,000;    0,000
 818,18;  -65,000;  351,000;    0,000
 818,43;   39,000;  226,000;    0,000
 818,68;   60,000;  114,000;    0,000
 818,92;  191,000;  372,000;    0,000
 819,17;  -13,000;  313,000;    0,000
 819,42; -115,000;  -69,000;    0,000
 819,66; -115,000;   94,000;    0,000
 819,91;  230,000;  612,000;    0,000
 820,16;  167,000;  627,000;    0,000
 820,40;  695,000; 1054,000;    0,000
 820,65;  442,000;  802,000;    0,000
 820,90; -164,000;  166,000;    0,000
 821,14;  187,000;  421,000;    0,000
 821,39;  -67,000;  435,000;    0,000
 821,63;   61,000;  558,000;    0,000
 821,88; -315,000;  154,000;    0,000
 822,13;  -42,000;  384,000;    0,000
 822,37;  371,000;  888,000;    0,000
 822,62;   88,000;  666,000;    0,000
 822,86;  -32,000;  510,000;    0,000
 823,11; -118,000;  472,000;    0,000
 823,36;  419,000;  859,000;    0,000
 823,60;  477,000; 1039,000;    0,000
 823,85;  538,000; 1076,000;    0,000
 824,09;  368,000; 1000,000;    0,000
 824,34;  -61,000;  725,000;    0,000
 824,59;  247,000;  830,000;    0,000
 824,83;  106,000;  745,000;    0,000
 825,08; -139,000;  347,000;    0,000
 825,32; -126,000;  611,000;    0,000
 825,57;  201,000;  719,000;    0,000
 825,81;  237,000;  880,000;    0,000
 826,06; -145,000;  415,000;    0,000
 826,30; -224,000;  363,000;    0,000
 826,55;  111,000;  710,000;    0,000
 826,80; -284,000;  549,000;    0,000
 827,04;  702,000; 1297,000;    0,000
 827,29;    1,000;  725,000;    0,000
 827,53;  504,000; 1172,000;    0,000
 827,78;  373,000;  962,000;    0,000
 828,02;  -54,000;  681,000;    0,000
 828,27;  -67,000;  698,000;    0,000
 828,51;  194,000;  693,000;    0,000
 828,76;   60,000;  661,000;    0,000
 829,00;  146,000;  848,000;    0,000
 829,25;  183,000;  704,000;    0,000
 829,49;  160,000;  688,000;    0,000
 829,74;  341,000;  864,000;    0,000
 829,98;  334,000;  707,000;    0,000
 830,23;   73,000;  629,000;    0,000
 830,47;  253,000;  729,000;    0,000
 830,72;  146,000;  553,000;    0,000
 830,96;  336,000;  681,000;    0,000
 831,21; -421,000;   45,000;    0,000
 831,45;  846,000; 1051,000;    0,000
 831,70; -110,000;  234,000;    0,000
 831,94;  169,000;  307,000;    0,000
 832,19;    4,000;  476,000;    0,000
 832,43; -183,000;  301,000;    0,000
 832,68;  401,000;  635,000;    0,000
 832,92;  439,000;  414,000;    0,000
 833,17; -284,000; -119,000;    0,000
 833,41;  836,000;  795,000;    0,000
 833,66;   10,000;  182,000;    0,000
 833,90;  216,000;  414,000;    0,000
 834,14; -155,000;   -2,000;    0,000
 834,39;  -36,000;  295,000;    0,000
 834,63;   26,000;  515,000;    0,000
 834,88;  151,000;  606,000;    0,000
 835,12;  196,000;  808,000;    0,000
 835,37;  394,000;  914,000;    0,000
 835,61;   50,000;  653,000;    0,000
 835,86;  723,000; 1520,000;    0,000
 836,10; -261,000;  652,000;    0,000
 836,34;   38,000; 1151,000;    0,000
 836,59;  -11,000;  970,000;    0,000
 836,83;  -41,000; 1217,000;    0,000
 837,08;  217,000; 1617,000;    0,000
 837,32;  285,000; 1677,000;    0,000
 837,56;  193,000; 1429,000;    0,000
 837,81;   48,000; 1446,000;    0,000
 838,05;  223,000; 1966,000;    0,000
 838,30;  172,000; 1855,000;    0,000
 838,54;  146,000; 1886,000;    0,000
 838,78;  258,000; 2107,000;    0,000
 839,03;  274,000; 1872,000;    0,000
 839,27;  583,000; 2296,000;    0,000
 839,52;  758,000; 2579,000;    0,000
 839,76;  445,000; 2188,000;    0,000
 840,00; 1353,000; 3117,000;    0,000
 840,25;  213,000; 2097,000;    0,000
 840,49;  371,000; 2265,000;    0,000
 840,73;  563,000; 2454,000;    0,000
 840,98;  314,000; 2283,000;    0,000
 841,22;  220,000; 2149,000;    0,000
 841,46;  526,000; 2430,000;    0,000
 841,71;  727,000; 2393,000;    0,000
 841,95;  349,000; 2330,000;    0,000
 842,19;  567,000; 2452,000;    0,000
 842,44;   28,000; 2072,000;    0,000
 842,68;  503,000; 2282,000;    0,000
 842,92;  305,000; 2346,000;    0,000
 843,17;  390,000; 2216,000;    0,000
 843,41;  357,000; 2281,000;    0,000
 843,65;  718,000; 2697,000;    0,000
 843,90;  289,000; 2236,000;    0,000
 844,14;  726,000; 2516,000;    0,000
 844,38;  501,000; 2277,000;    0,000
 844,63;  198,000; 1963,000;    0,000
 844,87;  391,000; 2238,000;    0,000
 845,11;  652,000; 2449,000;    0,000
 845,36;  125,000; 1793,000;    0,000
 845,60;   28,000; 1729,000;    0,000
 845,84;  201,000; 1593,000;    0,000
 846,08;  337,000; 2012,000;    0,000
 846,33;  524,000; 1964,000;    0,000
 846,57;  360,000; 1695,000;    0,000
 846,81;  -22,000; 1404,000;    0,000
 847,06;  682,000; 1901,000;    0,000
 847,30;  198,000; 1473,000;    0,000
 847,54;  298,000; 1071,000;    0,000
 847,78;  312,000; 1199,000;    0,000
 848,03;  -35,000;  917,000;    0,000
 848,27;  577,000; 1202,000;    0,000
 848,51;  477,000; 1101,000;    0,000
 848,75;  321,000; 1295,000;    0,000
 849,00;  432,000; 1078,000;    0,000
 849,24;   88,000;  436,000;    0,000
 849,48;  -52,000;  226,000;    0,000
 849,72;  480,000;  738,000;    0,000
 849,97;  628,000; 1022,000;    0,000
 850,21;  238,000;  726,000;    0,000
 850,45;  526,000;  935,000;    0,000
 850,69;   76,000;  544,000;    0,000
 850,94;  200,000;  502,000;    0,000
 851,18; -110,000;  282,000;    0,000
 851,42;   39,000;  374,000;    0,000
 851,66;  351,000;  947,000;    0,000
 851,90;  318,000;  581,000;    0,000
 852,15;  244,000;  628,000;    0,000
 852,39;  -23,000;  484,000;    0,000
 852,63;  -63,000;  204,000;    0,000
 852,87;  591,000; 1042,000;    0,000
 853,11;  -99,000;  428,000;    0,000
 853,36;  468,000;  651,000;    0,000
 853,60;  216,000;  747,000;    0,000
 853,84;  458,000;  937,000;    0,000
 854,08;   23,000;  816,000;    0,000
 854,32;   82,000;  381,000;    0,000
 854,56;  366,000;  663,000;    0,000
 854,81;  554,000; 1070,000;    0,000
 855,05;   15,000;  396,000;    0,000
 855,29;  679,000; 1075,000;    0,000
 855,53;    5,000;  280,000;    0,000
 855,77;  397,000;  660,000;    0,000
 856,01;   31,000;  426,000;    0,000
 856,26;  217,000;  589,000;    0,000
 856,50;   91,000;  427,000;    0,000
 856,74; -196,000;   91,000;    0,000
 856,98;  244,000;  689,000;    0,000
 857,22;  347,000;  614,000;    0,000
 857,46;  108,000;  494,000;    0,000
 857,70;  405,000;  652,000;    0,000
 857,94;  224,000;  575,000;    0,000
 858,19;  200,000;  283,000;    0,000
 858,43;   51,000;  176,000;    0,000
 858,67;  138,000;  166,000;    0,000
 858,91;  496,000;  585,000;    0,000
 859,15;   48,000;  144,000;    0,000
 859,39;  300,000;  489,000;    0,000
 859,63;  361,000;  337,000;    0,000
 859,87; 1311,000; 1396,000;    0,000
 860,11;  398,000;  315,000;    0,000
 860,35;  -50,000;   91,000;    0,000
 860,60;  -86,000;  -45,000;    0,000
 860,84; -196,000;   70,000;    0,000
 861,08;  349,000;  537,000;    0,000
 861,32;  271,000;  487,000;    0,000
 861,56;  447,000;  612,000;    0,000
 861,80;  389,000;  463,000;    0,000
 862,04;  452,000;  688,000;    0,000
 862,28;  858,000;  990,000;    0,000
 862,52;  455,000;  598,000;    0,000
 862,76;  151,000;  483,000;    0,000
 863,00;  790,000; 1098,000;    0,000
 863,24;   44,000;  177,000;    0,000
 863,48;  463,000;  580,000;    0,000
 863,72;  541,000;  688,000;    0,000
 863,96;  857,000; 1254,000;    0,000
 864,20;  687,000;  892,000;    0,000
 864,44;  520,000;  569,000;    0,000
 864,69;   -3,000;  311,000;    0,000
 864,93;  246,000;  363,000;    0,000
 865,17; -148,000;  152,000;    0,000
 865,41; 1181,000; 1233,000;    0,000
 865,65;   32,000;  308,000;    0,000
 865,89;  222,000;  374,000;    0,000
 866,13;  309,000;  583,000;    0,000
 866,37;  868,000; 1073,000;    0,000
 866,61;   94,000;  338,000;    0,000
 866,85;  268,000;  587,000;    0,000
 867,09;  231,000;  412,000;    0,000
 867,33; 1032,000; 1328,000;    0,000
 867,57;  650,000;  926,000;    0,000
 867,81;  853,000;  894,000;    0,000
 868,05;  496,000;  671,000;    0,000
 868,29;  315,000;  633,000;    0,000
 868,53;  548,000;  691,000;    0,000
 868,76;  875,000;  988,000;    0,000
 869,00;  332,000;  622,000;    0,000
 869,24;  942,000;  980,000;    0,000
 869,48;  623,000;  772,000;    0,000
 869,72;  286,000;  412,000;    0,000
 869,96;  287,000;  597,000;    0,000
 870,20;  686,000;  822,000;    0,000
 870,44;  607,000;  719,000;    0,000
 870,68;  847,000; 1205,000;    0,000
 870,92;  521,000;  753,000;    0,000
 871,16;  761,000;  811,000;    0,000
 871,40; 1099,000; 1452,000;    0,000
 871,64;  999,000; 1108,000;    0,000
 871,88;  439,000;  604,000;    0,000
 872,12;  646,000;  707,000;    0,000
 872,36;  916,000; 1079,000;    0,000
 872,60;  633,000;  851,000;    0,000
 872,83;  633,000;  687,000;    0,000
 873,07; 1269,000; 1255,000;    0,000
 873,31;  883,000;  871,000;    0,000
 873,55; 1002,000; 1258,000;    0,000
 873,79;  586,000;  649,000;    0,000
 874,03;  796,000;  968,000;    0,000
 874,27;  616,000;  693,000;    0,000
 874,51;  893,000;  908,000;    0,000
 874,75;  903,000;  968,000;    0,000
 874,99;  677,000;  947,000;    0,000
 875,22; 1026,000; 1189,000;    0,000
 875,46;  694,000;  775,000;    0,000
 875,70;  730,000;  879,000;    0,000
 875,94; 1175,000; 1099,000;    0,000
 876,18;  864,000; 1107,000;    0,000
 876,42;  789,000;  827,000;    0,000
 876,66; 1075,000; 1175,000;    0,000
 876,89;  933,000; 1014,000;    0,000
 877,13; 1257,000; 1229,000;    0,000
 877,37;  758,000;  802,000;    0,000
 877,61;  884,000; 1127,000;    0,000
 877,85; 1525,000; 1670,000;    0,000
 878,09; 1764,000; 1838,000;    0,000
 878,33; 1214,000; 1203,000;    0,000
 878,56; 1221,000; 1142,000;    0,000
 878,80; 1228,000; 1142,000;    0,000
 879,04; 1464,000; 1568,000;    0,000
 879,28; 1688,000; 1668,000;    0,000
 879,52; 1165,000; 1195,000;    0,000
 879,75; 1544,000; 1618,000;    0,000
 879,99; 1484,000; 1584,000;    0,000
 880,23; 1606,000; 1369,000;    0,000
 880,47; 1572,000; 1581,000;    0,000
 880,71; 1750,000; 1706,000;    0,000
 880,95; 1884,000; 2066,000;    0,000
 881,18; 1962,000; 1757,000;    0,000
 881,42; 2165,000; 2202,000;    0,000
 881,66; 2452,000; 2555,000;    0,000
 881,90; 2051,000; 2050,000;    0,000
 882,13; 2078,000; 2238,000;    0,000
 882,37; 2175,000; 2528,000;    0,000
 882,61; 2650,000; 2750,000;    0,000
 882,85; 2778,000; 2749,000;    0,000
 883,09; 2827,000; 3200,000;    0,000
 883,32; 2789,000; 3452,000;    0,000
 883,56; 3413,000; 3739,000;    0,000
 883,80; 3471,000; 3764,000;    0,000
 884,04; 4063,000; 4057,000;    0,000
 884,27; 4797,000; 5097,000;    0,000
 884,51; 4750,000; 4775,000;    0,000
 884,75; 5606,000; 5777,000;    0,000
 884,99; 6491,000; 6635,000;    0,000
 885,22; 7167,000; 7196,000;    0,000
 885,46; 8348,000; 8313,000;    0,000

