qd7_rojo_liquido
Integration time [ms]:  500,00
Averaging Nr. [scans]: 1
Smoothing Nr. [pixels]: 0
Data measured with spectrometer [name]: 1412150E1
Wave   ;Sample   ;Dark     ;Reference;Scope
[nm]   ;[counts] ;[counts] ;[counts] 

 337,19;31333,000; 4519,000;    0,000
 337,48;31725,000; 4777,000;    0,000
 337,77;32937,000; 4996,000;    0,000
 338,07;33511,000; 5120,000;    0,000
 338,36;34331,000; 5286,000;    0,000
 338,66;35616,000; 5142,000;    0,000
 338,95;35814,000; 5652,000;    0,000
 339,24;36600,000; 5451,000;    0,000
 339,54;36877,000; 5497,000;    0,000
 339,83;38467,000; 5938,000;    0,000
 340,12;38768,000; 6176,000;    0,000
 340,42;40244,000; 5847,000;    0,000
 340,71;40428,000; 6095,000;    0,000
 341,00;41762,000; 6297,000;    0,000
 341,30;41293,000; 6500,000;    0,000
 341,59;43491,000; 6309,000;    0,000
 341,88;43626,000; 6505,000;    0,000
 342,18;45279,000; 6662,000;    0,000
 342,47;45395,000; 7136,000;    0,000
 342,76;47192,000; 7683,000;    0,000
 343,06;46501,000; 6938,000;    0,000
 343,35;49026,000; 7263,000;    0,000
 343,64;48995,000; 7272,000;    0,000
 343,94;49457,000; 7497,000;    0,000
 344,23;50384,000; 7195,000;    0,000
 344,52;51452,000; 8224,000;    0,000
 344,82;52143,000; 7697,000;    0,000
 345,11;52467,000; 7983,000;    0,000
 345,40;53672,000; 8548,000;    0,000
 345,70;54889,000; 8504,000;    0,000
 345,99;54494,000; 8171,000;    0,000
 346,28;56317,000; 8727,000;    0,000
 346,58;56635,000; 8549,000;    0,000
 346,87;58367,000; 8801,000;    0,000
 347,16;58578,000; 9409,000;    0,000
 347,45;59294,000; 9224,000;    0,000
 347,75;59578,000; 9093,000;    0,000
 348,04;61023,000;10353,000;    0,000
 348,33;61947,000;10122,000;    0,000
 348,63;62796,000;10359,000;    0,000
 348,92;62973,000; 9975,000;    0,000
 349,21;63406,000;10645,000;    0,000
 349,51;63640,000;10752,000;    0,000
 349,80;63869,000;10882,000;    0,000
 350,09;63640,000;10725,000;    0,000
 350,38;63869,000;11350,000;    0,000
 350,68;63640,000;11062,000;    0,000
 350,97;63869,000;12057,000;    0,000
 351,26;63640,000;12382,000;    0,000
 351,55;63869,000;11691,000;    0,000
 351,85;63640,000;11512,000;    0,000
 352,14;63869,000;12062,000;    0,000
 352,43;63640,000;12134,000;    0,000
 352,73;63869,000;12194,000;    0,000
 353,02;63640,000;12961,000;    0,000
 353,31;63869,000;12741,000;    0,000
 353,60;63640,000;13288,000;    0,000
 353,90;63869,000;13402,000;    0,000
 354,19;63640,000;13302,000;    0,000
 354,48;63869,000;13583,000;    0,000
 354,77;63640,000;13930,000;    0,000
 355,07;63869,000;14181,000;    0,000
 355,36;63640,000;14068,000;    0,000
 355,65;63869,000;15094,000;    0,000
 355,94;63640,000;14989,000;    0,000
 356,23;63869,000;15518,000;    0,000
 356,53;63640,000;16018,000;    0,000
 356,82;63869,000;16227,000;    0,000
 357,11;63640,000;16204,000;    0,000
 357,40;63869,000;15979,000;    0,000
 357,70;63640,000;16676,000;    0,000
 357,99;63869,000;17580,000;    0,000
 358,28;63640,000;17299,000;    0,000
 358,57;63869,000;18173,000;    0,000
 358,87;63640,000;17755,000;    0,000
 359,16;63869,000;18435,000;    0,000
 359,45;63640,000;18771,000;    0,000
 359,74;63869,000;19402,000;    0,000
 360,03;63640,000;20186,000;    0,000
 360,33;63869,000;19664,000;    0,000
 360,62;63640,000;19493,000;    0,000
 360,91;63869,000;20114,000;    0,000
 361,20;63640,000;20008,000;    0,000
 361,49;63869,000;20694,000;    0,000
 361,79;63640,000;20705,000;    0,000
 362,08;63869,000;21141,000;    0,000
 362,37;63640,000;21162,000;    0,000
 362,66;63869,000;20959,000;    0,000
 362,95;63640,000;21384,000;    0,000
 363,25;63869,000;21529,000;    0,000
 363,54;63640,000;21446,000;    0,000
 363,83;63869,000;21732,000;    0,000
 364,12;63640,000;21897,000;    0,000
 364,41;63869,000;21721,000;    0,000
 364,70;63640,000;22250,000;    0,000
 365,00;63869,000;22000,000;    0,000
 365,29;63640,000;22139,000;    0,000
 365,58;63869,000;22063,000;    0,000
 365,87;63640,000;21752,000;    0,000
 366,16;63869,000;21322,000;    0,000
 366,45;63640,000;21847,000;    0,000
 366,75;63869,000;21324,000;    0,000
 367,04;63640,000;21463,000;    0,000
 367,33;63869,000;21349,000;    0,000
 367,62;63640,000;21652,000;    0,000
 367,91;63869,000;21204,000;    0,000
 368,20;63640,000;20775,000;    0,000
 368,50;63869,000;21236,000;    0,000
 368,79;63640,000;20604,000;    0,000
 369,08;63869,000;20361,000;    0,000
 369,37;63640,000;20559,000;    0,000
 369,66;63869,000;20310,000;    0,000
 369,95;63640,000;20243,000;    0,000
 370,24;63869,000;20353,000;    0,000
 370,53;63640,000;19478,000;    0,000
 370,83;63869,000;19258,000;    0,000
 371,12;63640,000;18966,000;    0,000
 371,41;63869,000;18842,000;    0,000
 371,70;63640,000;18296,000;    0,000
 371,99;63869,000;18008,000;    0,000
 372,28;63640,000;17604,000;    0,000
 372,57;63869,000;17814,000;    0,000
 372,86;63640,000;16670,000;    0,000
 373,16;63869,000;16681,000;    0,000
 373,45;63640,000;16549,000;    0,000
 373,74;63869,000;15829,000;    0,000
 374,03;63640,000;16024,000;    0,000
 374,32;63869,000;16248,000;    0,000
 374,61;63640,000;15984,000;    0,000
 374,90;63869,000;15269,000;    0,000
 375,19;63640,000;14620,000;    0,000
 375,48;63869,000;14773,000;    0,000
 375,78;63640,000;14703,000;    0,000
 376,07;63869,000;14255,000;    0,000
 376,36;63640,000;14048,000;    0,000
 376,65;63869,000;14089,000;    0,000
 376,94;63640,000;13344,000;    0,000
 377,23;63869,000;13638,000;    0,000
 377,52;62336,000;13325,000;    0,000
 377,81;61945,000;12717,000;    0,000
 378,10;60617,000;13206,000;    0,000
 378,39;59798,000;13371,000;    0,000
 378,68;58196,000;12866,000;    0,000
 378,97;57019,000;12559,000;    0,000
 379,26;55834,000;11454,000;    0,000
 379,56;55120,000;11636,000;    0,000
 379,85;54817,000;12247,000;    0,000
 380,14;53397,000;11310,000;    0,000
 380,43;51537,000;11443,000;    0,000
 380,72;51704,000;12082,000;    0,000
 381,01;50656,000;11839,000;    0,000
 381,30;49662,000;11308,000;    0,000
 381,59;48772,000;11084,000;    0,000
 381,88;47164,000;10752,000;    0,000
 382,17;46282,000;10656,000;    0,000
 382,46;45383,000;11054,000;    0,000
 382,75;45517,000;10779,000;    0,000
 383,04;43807,000;10369,000;    0,000
 383,33;43530,000;10529,000;    0,000
 383,62;42608,000;10143,000;    0,000
 383,91;41189,000; 9842,000;    0,000
 384,20;40918,000;10664,000;    0,000
 384,49;40157,000;10016,000;    0,000
 384,78;39334,000; 9537,000;    0,000
 385,07;37948,000; 9869,000;    0,000
 385,36;37520,000; 9800,000;    0,000
 385,65;36239,000; 9627,000;    0,000
 385,94;35792,000; 9539,000;    0,000
 386,23;35547,000; 9454,000;    0,000
 386,52;35167,000; 8805,000;    0,000
 386,81;34778,000; 9847,000;    0,000
 387,10;33003,000; 9246,000;    0,000
 387,39;32332,000; 8569,000;    0,000
 387,68;31953,000; 8956,000;    0,000
 387,97;30663,000; 9054,000;    0,000
 388,26;30844,000; 8392,000;    0,000
 388,55;29631,000; 8528,000;    0,000
 388,84;28975,000; 8787,000;    0,000
 389,13;29158,000; 8379,000;    0,000
 389,42;28073,000; 8860,000;    0,000
 389,71;27876,000; 8775,000;    0,000
 390,00;27195,000; 8527,000;    0,000
 390,29;26507,000; 8773,000;    0,000
 390,58;26432,000; 8302,000;    0,000
 390,87;25498,000; 8653,000;    0,000
 391,16;25037,000; 8430,000;    0,000
 391,45;23605,000; 8257,000;    0,000
 391,74;23727,000; 8053,000;    0,000
 392,03;23410,000; 8568,000;    0,000
 392,32;22892,000; 7993,000;    0,000
 392,61;21792,000; 7782,000;    0,000
 392,90;21634,000; 7701,000;    0,000
 393,19;21201,000; 7850,000;    0,000
 393,48;20810,000; 7493,000;    0,000
 393,77;20154,000; 7194,000;    0,000
 394,06;19847,000; 7300,000;    0,000
 394,35;18781,000; 7192,000;    0,000
 394,64;18572,000; 7166,000;    0,000
 394,93;17599,000; 6812,000;    0,000
 395,22;17630,000; 7084,000;    0,000
 395,51;17097,000; 7275,000;    0,000
 395,80;17400,000; 6721,000;    0,000
 396,09;15926,000; 6734,000;    0,000
 396,38;16469,000; 6827,000;    0,000
 396,67;15679,000; 6625,000;    0,000
 396,95;15872,000; 7214,000;    0,000
 397,24;14224,000; 7052,000;    0,000
 397,53;14808,000; 8068,000;    0,000
 397,82;14926,000; 8647,000;    0,000
 398,11;15637,000; 9783,000;    0,000
 398,40;16774,000;10706,000;    0,000
 398,69;18111,000;11843,000;    0,000
 398,98;19914,000;12285,000;    0,000
 399,27;20556,000;12832,000;    0,000
 399,56;20942,000;12997,000;    0,000
 399,85;22350,000;13598,000;    0,000
 400,14;23019,000;14305,000;    0,000
 400,42;23440,000;14131,000;    0,000
 400,71;22712,000;13799,000;    0,000
 401,00;23914,000;14597,000;    0,000
 401,29;23085,000;14540,000;    0,000
 401,58;23125,000;14557,000;    0,000
 401,87;24450,000;15101,000;    0,000
 402,16;23741,000;14872,000;    0,000
 402,45;23991,000;14890,000;    0,000
 402,74;24370,000;15279,000;    0,000
 403,03;23328,000;14890,000;    0,000
 403,31;23898,000;15193,000;    0,000
 403,60;23572,000;14965,000;    0,000
 403,89;23413,000;14546,000;    0,000
 404,18;22909,000;14709,000;    0,000
 404,47;22645,000;14314,000;    0,000
 404,76;22185,000;14718,000;    0,000
 405,05;22489,000;14495,000;    0,000
 405,34;21142,000;13520,000;    0,000
 405,62;21534,000;14395,000;    0,000
 405,91;21404,000;14404,000;    0,000
 406,20;21676,000;14296,000;    0,000
 406,49;21376,000;14141,000;    0,000
 406,78;21302,000;13849,000;    0,000
 407,07;21029,000;13801,000;    0,000
 407,36;21183,000;13823,000;    0,000
 407,64;21262,000;13621,000;    0,000
 407,93;20725,000;13981,000;    0,000
 408,22;19399,000;13202,000;    0,000
 408,51;19758,000;13321,000;    0,000
 408,80;18659,000;12237,000;    0,000
 409,09;18544,000;12421,000;    0,000
 409,38;17932,000;11910,000;    0,000
 409,66;18727,000;12082,000;    0,000
 409,95;17541,000;11496,000;    0,000
 410,24;16013,000; 9873,000;    0,000
 410,53;15428,000; 8962,000;    0,000
 410,82;14357,000; 7956,000;    0,000
 411,11;12797,000; 7008,000;    0,000
 411,39;11342,000; 6189,000;    0,000
 411,68; 8586,000; 4926,000;    0,000
 411,97; 6737,000; 3552,000;    0,000
 412,26; 4756,000; 3121,000;    0,000
 412,55; 4690,000; 3057,000;    0,000
 412,83; 4685,000; 3416,000;    0,000
 413,12; 4210,000; 2552,000;    0,000
 413,41; 3870,000; 2621,000;    0,000
 413,70; 4839,000; 3321,000;    0,000
 413,99; 3615,000; 2190,000;    0,000
 414,27; 3506,000; 2051,000;    0,000
 414,56; 3481,000; 2295,000;    0,000
 414,85; 3728,000; 2483,000;    0,000
 415,14; 2863,000; 2062,000;    0,000
 415,43; 2849,000; 1646,000;    0,000
 415,71; 2361,000; 1325,000;    0,000
 416,00; 2610,000; 1612,000;    0,000
 416,29; 2582,000; 1599,000;    0,000
 416,58; 2733,000; 1686,000;    0,000
 416,87; 2594,000; 1708,000;    0,000
 417,15; 2486,000; 1217,000;    0,000
 417,44; 2221,000; 1707,000;    0,000
 417,73; 2702,000; 1774,000;    0,000
 418,02; 2786,000; 1850,000;    0,000
 418,30; 2242,000; 1393,000;    0,000
 418,59; 2505,000; 1702,000;    0,000
 418,88; 2724,000; 1614,000;    0,000
 419,17; 2361,000; 1292,000;    0,000
 419,45; 2442,000; 1342,000;    0,000
 419,74; 2095,000; 1466,000;    0,000
 420,03; 1952,000;  888,000;    0,000
 420,32; 2002,000; 1298,000;    0,000
 420,60; 2400,000; 1633,000;    0,000
 420,89; 2211,000; 1336,000;    0,000
 421,18; 2265,000; 1224,000;    0,000
 421,47; 1406,000;  915,000;    0,000
 421,75; 1690,000;  798,000;    0,000
 422,04; 1590,000;  988,000;    0,000
 422,33; 1775,000;  919,000;    0,000
 422,62; 1838,000; 1261,000;    0,000
 422,90; 1762,000;  868,000;    0,000
 423,19; 1719,000;  868,000;    0,000
 423,48; 1688,000;  953,000;    0,000
 423,77; 1669,000;  989,000;    0,000
 424,05; 1532,000;  771,000;    0,000
 424,34; 1611,000;  777,000;    0,000
 424,63; 2033,000; 1289,000;    0,000
 424,91; 1748,000; 1252,000;    0,000
 425,20; 1614,000;  825,000;    0,000
 425,49; 1640,000; 1191,000;    0,000
 425,78; 1781,000; 1265,000;    0,000
 426,06; 1340,000;  972,000;    0,000
 426,35; 2423,000; 1885,000;    0,000
 426,64; 1751,000; 1272,000;    0,000
 426,92; 2149,000; 1358,000;    0,000
 427,21; 1212,000;  772,000;    0,000
 427,50; 1559,000;  471,000;    0,000
 427,78; 1085,000;  580,000;    0,000
 428,07;10231,000;10971,000;    0,000
 428,36; 1018,000;  696,000;    0,000
 428,65; 2237,000; 1755,000;    0,000
 428,93; 1511,000; 1399,000;    0,000
 429,22; 2132,000; 2217,000;    0,000
 429,51; 2017,000; 2177,000;    0,000
 429,79; 2630,000; 2359,000;    0,000
 430,08; 3036,000; 2793,000;    0,000
 430,37; 3653,000; 3226,000;    0,000
 430,65; 3708,000; 3038,000;    0,000
 430,94; 4262,000; 3643,000;    0,000
 431,23; 4195,000; 3501,000;    0,000
 431,51; 4763,000; 3635,000;    0,000
 431,80; 4936,000; 3812,000;    0,000
 432,09; 5221,000; 3784,000;    0,000
 432,37; 4937,000; 4191,000;    0,000
 432,66; 5535,000; 4093,000;    0,000
 432,95; 4983,000; 3871,000;    0,000
 433,23; 5785,000; 4511,000;    0,000
 433,52; 5446,000; 4259,000;    0,000
 433,81; 5502,000; 4230,000;    0,000
 434,09; 5625,000; 4322,000;    0,000
 434,38; 5235,000; 4106,000;    0,000
 434,66; 5880,000; 4497,000;    0,000
 434,95; 5742,000; 4346,000;    0,000
 435,24; 5737,000; 4354,000;    0,000
 435,52; 5594,000; 4004,000;    0,000
 435,81; 5085,000; 3892,000;    0,000
 436,10; 5667,000; 4531,000;    0,000
 436,38; 5443,000; 4278,000;    0,000
 436,67; 5854,000; 4196,000;    0,000
 436,95; 5773,000; 4319,000;    0,000
 437,24; 5622,000; 4133,000;    0,000
 437,53; 5207,000; 3687,000;    0,000
 437,81; 5983,000; 4544,000;    0,000
 438,10; 5893,000; 4729,000;    0,000
 438,39; 5624,000; 3826,000;    0,000
 438,67; 5547,000; 3878,000;    0,000
 438,96; 6151,000; 4744,000;    0,000
 439,24; 5311,000; 4235,000;    0,000
 439,53; 5934,000; 4443,000;    0,000
 439,82; 4992,000; 3668,000;    0,000
 440,10; 5207,000; 4050,000;    0,000
 440,39; 5149,000; 3995,000;    0,000
 440,67; 5069,000; 3706,000;    0,000
 440,96; 4973,000; 3703,000;    0,000
 441,25; 4973,000; 3713,000;    0,000
 441,53; 5143,000; 3424,000;    0,000
 441,82; 4134,000; 2410,000;    0,000
 442,10; 3552,000; 2274,000;    0,000
 442,39; 3284,000; 1444,000;    0,000
 442,67; 5382,000; 4458,000;    0,000
 442,96; 2253,000; 1101,000;    0,000
 443,25; 1595,000;  738,000;    0,000
 443,53; 2239,000; 1578,000;    0,000
 443,82; 1378,000;  791,000;    0,000
 444,10; 1936,000; 1148,000;    0,000
 444,39; 1396,000; 1098,000;    0,000
 444,67; 1801,000; 1066,000;    0,000
 444,96; 1133,000;  674,000;    0,000
 445,24; 1344,000; 1002,000;    0,000
 445,53; 1148,000;  837,000;    0,000
 445,82; 1663,000; 1072,000;    0,000
 446,10; 1218,000;  884,000;    0,000
 446,39; 1210,000;  670,000;    0,000
 446,67; 1628,000;  810,000;    0,000
 446,96; 1401,000;  727,000;    0,000
 447,24; 1111,000;  677,000;    0,000
 447,53; 1474,000;  749,000;    0,000
 447,81; 1143,000;  766,000;    0,000
 448,10; 1429,000;  990,000;    0,000
 448,38; 1044,000;  573,000;    0,000
 448,67; 1685,000; 1209,000;    0,000
 448,95; 1211,000; 1076,000;    0,000
 449,24; 1481,000; 1090,000;    0,000
 449,53; 1184,000;  990,000;    0,000
 449,81;  897,000;  561,000;    0,000
 450,10;  782,000;  480,000;    0,000
 450,38; 1149,000;  743,000;    0,000
 450,67; 1578,000; 1212,000;    0,000
 450,95; 1291,000;  890,000;    0,000
 451,24;  950,000;  478,000;    0,000
 451,52; 1424,000;  717,000;    0,000
 451,81; 1372,000;  999,000;    0,000
 452,09; 1388,000; 1007,000;    0,000
 452,38; 1381,000; 1098,000;    0,000
 452,66; 1298,000;  852,000;    0,000
 452,95; 1066,000;  938,000;    0,000
 453,23; 1739,000; 1266,000;    0,000
 453,52; 1330,000; 1055,000;    0,000
 453,80; 1538,000; 1298,000;    0,000
 454,08; 1371,000; 1019,000;    0,000
 454,37; 1396,000;  832,000;    0,000
 454,65; 1049,000;  906,000;    0,000
 454,94; 1592,000; 1042,000;    0,000
 455,22;  795,000;  650,000;    0,000
 455,51; 1173,000;  664,000;    0,000
 455,79; 1728,000; 1497,000;    0,000
 456,08; 1412,000; 1360,000;    0,000
 456,36; 1838,000; 1266,000;    0,000
 456,65; 1593,000; 1088,000;    0,000
 456,93; 1282,000;  871,000;    0,000
 457,22; 1217,000;  715,000;    0,000
 457,50;  770,000;  671,000;    0,000
 457,79; 1210,000;  772,000;    0,000
 458,07; 1746,000; 1381,000;    0,000
 458,35; 1302,000;  832,000;    0,000
 458,64; 1070,000;  905,000;    0,000
 458,92; 2006,000; 1508,000;    0,000
 459,21; 1269,000;  919,000;    0,000
 459,49; 1236,000;  909,000;    0,000
 459,78; 1267,000;  975,000;    0,000
 460,06; 1180,000;  921,000;    0,000
 460,34; 1081,000;  777,000;    0,000
 460,63; 1078,000;  756,000;    0,000
 460,91; 1012,000;  756,000;    0,000
 461,20; 1493,000;  910,000;    0,000
 461,48; 1048,000; 1030,000;    0,000
 461,77; 1234,000;  895,000;    0,000
 462,05; 1027,000;  991,000;    0,000
 462,33; 1209,000; 1043,000;    0,000
 462,62; 1438,000; 1186,000;    0,000
 462,90; 1265,000;  886,000;    0,000
 463,19; 1513,000; 1247,000;    0,000
 463,47; 1431,000;  992,000;    0,000
 463,75; 1546,000; 1375,000;    0,000
 464,04; 1388,000; 1000,000;    0,000
 464,32;  998,000;  832,000;    0,000
 464,61; 1696,000; 1248,000;    0,000
 464,89; 1347,000; 1101,000;    0,000
 465,17; 2008,000; 1514,000;    0,000
 465,46; 1352,000; 1159,000;    0,000
 465,74; 1174,000;  683,000;    0,000
 466,03; 1126,000;  963,000;    0,000
 466,31; 1251,000;  833,000;    0,000
 466,59; 1278,000; 1150,000;    0,000
 466,88; 1219,000;  912,000;    0,000
 467,16; 1531,000; 1179,000;    0,000
 467,44; 1510,000;  988,000;    0,000
 467,73; 1037,000;  798,000;    0,000
 468,01; 1854,000; 1138,000;    0,000
 468,30; 1399,000; 1189,000;    0,000
 468,58; 1501,000; 1308,000;    0,000
 468,86; 1055,000;  815,000;    0,000
 469,15; 1372,000; 1082,000;    0,000
 469,43;  841,000;  674,000;    0,000
 469,71; 1549,000; 1095,000;    0,000
 470,00;  850,000;  781,000;    0,000
 470,28; 1263,000;  800,000;    0,000
 470,56; 1508,000; 1276,000;    0,000
 470,85; 1854,000; 1232,000;    0,000
 471,13;  912,000;  777,000;    0,000
 471,41; 1254,000;  791,000;    0,000
 471,70; 1295,000; 1107,000;    0,000
 471,98; 2323,000; 1945,000;    0,000
 472,26; 1409,000; 1105,000;    0,000
 472,55; 1175,000;  649,000;    0,000
 472,83; 1179,000;  919,000;    0,000
 473,11; 1533,000; 1236,000;    0,000
 473,40; 1361,000; 1188,000;    0,000
 473,68; 1800,000; 1407,000;    0,000
 473,96; 1327,000; 1298,000;    0,000
 474,25; 1463,000;  930,000;    0,000
 474,53;  914,000;  845,000;    0,000
 474,81; 1310,000; 1171,000;    0,000
 475,10; 1306,000; 1097,000;    0,000
 475,38; 1441,000; 1476,000;    0,000
 475,66; 1225,000; 1098,000;    0,000
 475,94; 1388,000; 1195,000;    0,000
 476,23; 2301,000; 1903,000;    0,000
 476,51; 1436,000; 1219,000;    0,000
 476,79; 1008,000;  937,000;    0,000
 477,08; 1508,000; 1346,000;    0,000
 477,36; 1242,000; 1097,000;    0,000
 477,64; 1606,000; 1162,000;    0,000
 477,92; 1622,000; 1203,000;    0,000
 478,21; 1139,000;  647,000;    0,000
 478,49; 1852,000; 1564,000;    0,000
 478,77; 1110,000;  985,000;    0,000
 479,06;  945,000; 1000,000;    0,000
 479,34; 1306,000;  918,000;    0,000
 479,62; 1311,000; 1015,000;    0,000
 479,90; 1325,000; 1047,000;    0,000
 480,19; 1571,000; 1490,000;    0,000
 480,47; 1328,000; 1039,000;    0,000
 480,75; 1137,000;  984,000;    0,000
 481,03; 1579,000; 1256,000;    0,000
 481,32; 1268,000; 1199,000;    0,000
 481,60; 1443,000; 1018,000;    0,000
 481,88; 1056,000; 1195,000;    0,000
 482,16; 1566,000;  869,000;    0,000
 482,45;  937,000;  675,000;    0,000
 482,73; 1719,000; 1188,000;    0,000
 483,01; 1635,000; 1472,000;    0,000
 483,29; 1323,000; 1062,000;    0,000
 483,58; 1993,000; 1904,000;    0,000
 483,86; 1654,000; 1244,000;    0,000
 484,14; 1225,000; 1077,000;    0,000
 484,42; 1421,000; 1037,000;    0,000
 484,71; 1409,000; 1262,000;    0,000
 484,99; 1400,000; 1169,000;    0,000
 485,27; 1167,000;  885,000;    0,000
 485,55; 1446,000; 1219,000;    0,000
 485,83; 1174,000; 1028,000;    0,000
 486,12; 1214,000; 1034,000;    0,000
 486,40; 1466,000; 1328,000;    0,000
 486,68; 1437,000; 1407,000;    0,000
 486,96;  913,000;  969,000;    0,000
 487,24; 1330,000;  967,000;    0,000
 487,53;  971,000;  886,000;    0,000
 487,81; 1632,000; 1263,000;    0,000
 488,09; 1074,000; 1023,000;    0,000
 488,37; 1778,000; 1573,000;    0,000
 488,65; 1159,000; 1241,000;    0,000
 488,94; 1471,000; 1244,000;    0,000
 489,22;  934,000; 1003,000;    0,000
 489,50; 1940,000; 1590,000;    0,000
 489,78; 1063,000; 1072,000;    0,000
 490,06; 1419,000; 1185,000;    0,000
 490,34;  851,000;  807,000;    0,000
 490,63; 1226,000; 1068,000;    0,000
 490,91;  860,000;  798,000;    0,000
 491,19; 1191,000; 1047,000;    0,000
 491,47; 1155,000; 1022,000;    0,000
 491,75; 1153,000; 1108,000;    0,000
 492,04; 1061,000; 1019,000;    0,000
 492,32; 1763,000; 1572,000;    0,000
 492,60; 1535,000; 1277,000;    0,000
 492,88;  871,000;  546,000;    0,000
 493,16; 1404,000; 1183,000;    0,000
 493,44; 1084,000; 1190,000;    0,000
 493,72; 1247,000; 1215,000;    0,000
 494,01; 1411,000; 1253,000;    0,000
 494,29;  659,000;  670,000;    0,000
 494,57;  971,000;  978,000;    0,000
 494,85; 1044,000; 1096,000;    0,000
 495,13; 1105,000; 1000,000;    0,000
 495,41; 1067,000; 1100,000;    0,000
 495,69; 1045,000;  984,000;    0,000
 495,98; 1645,000; 1656,000;    0,000
 496,26; 1725,000; 1577,000;    0,000
 496,54;  820,000;  881,000;    0,000
 496,82; 1275,000; 1181,000;    0,000
 497,10;  874,000;  793,000;    0,000
 497,38; 1386,000; 1119,000;    0,000
 497,66;  814,000;  570,000;    0,000
 497,94; 1309,000;  979,000;    0,000
 498,22; 1015,000; 1214,000;    0,000
 498,51; 1226,000;  931,000;    0,000
 498,79; 1371,000; 1581,000;    0,000
 499,07; 1108,000;  894,000;    0,000
 499,35;  694,000;  727,000;    0,000
 499,63; 1097,000;  880,000;    0,000
 499,91; 1113,000; 1169,000;    0,000
 500,19; 1323,000; 1241,000;    0,000
 500,47;  832,000;  728,000;    0,000
 500,75; 1290,000; 1050,000;    0,000
 501,03; 1154,000; 1307,000;    0,000
 501,31; 1404,000; 1267,000;    0,000
 501,60; 1297,000; 1486,000;    0,000
 501,88;  957,000;  881,000;    0,000
 502,16; 1077,000; 1204,000;    0,000
 502,44; 1536,000; 1392,000;    0,000
 502,72;  816,000; 1057,000;    0,000
 503,00; 1352,000; 1416,000;    0,000
 503,28;  722,000;  914,000;    0,000
 503,56;  970,000;  821,000;    0,000
 503,84;  656,000; 1049,000;    0,000
 504,12; 1303,000; 1353,000;    0,000
 504,40;  806,000; 1011,000;    0,000
 504,68;  728,000;  800,000;    0,000
 504,96;  867,000;  796,000;    0,000
 505,24; 1705,000; 1769,000;    0,000
 505,52;  939,000; 1142,000;    0,000
 505,80;  968,000; 1290,000;    0,000
 506,08;  882,000; 1035,000;    0,000
 506,36; 1069,000; 1397,000;    0,000
 506,65;  808,000; 1388,000;    0,000
 506,93; 1437,000; 1568,000;    0,000
 507,21;  816,000; 1160,000;    0,000
 507,49;  860,000; 1362,000;    0,000
 507,77;  764,000; 1248,000;    0,000
 508,05; 1071,000; 1345,000;    0,000
 508,33;  722,000; 1441,000;    0,000
 508,61; 1107,000; 1199,000;    0,000
 508,89;  804,000; 1634,000;    0,000
 509,17;  607,000; 1345,000;    0,000
 509,45;  677,000; 1494,000;    0,000
 509,73;  694,000; 1355,000;    0,000
 510,01;  711,000; 1561,000;    0,000
 510,29;  953,000; 1762,000;    0,000
 510,57;  575,000; 1536,000;    0,000
 510,85; 1028,000; 1862,000;    0,000
 511,13;  761,000; 1795,000;    0,000
 511,41; 1071,000; 1925,000;    0,000
 511,69;  924,000; 2082,000;    0,000
 511,97;  929,000; 2019,000;    0,000
 512,25;  882,000; 2184,000;    0,000
 512,53;  760,000; 1794,000;    0,000
 512,81;  783,000; 2290,000;    0,000
 513,09; 1067,000; 2336,000;    0,000
 513,37;  340,000; 1747,000;    0,000
 513,65; 1164,000; 2511,000;    0,000
 513,93;  768,000; 2228,000;    0,000
 514,21; 1091,000; 2416,000;    0,000
 514,48;  225,000; 2059,000;    0,000
 514,76; 1015,000; 2942,000;    0,000
 515,04;  642,000; 2545,000;    0,000
 515,32; 1265,000; 3095,000;    0,000
 515,60;  443,000; 2559,000;    0,000
 515,88;  918,000; 3136,000;    0,000
 516,16;  629,000; 2606,000;    0,000
 516,44; 1022,000; 3081,000;    0,000
 516,72;  522,000; 3141,000;    0,000
 517,00; 1245,000; 3828,000;    0,000
 517,28;  681,000; 3197,000;    0,000
 517,56; 1030,000; 3820,000;    0,000
 517,84;  663,000; 3676,000;    0,000
 518,12;  714,000; 3803,000;    0,000
 518,40;  516,000; 3627,000;    0,000
 518,68;  580,000; 3749,000;    0,000
 518,96;  479,000; 3771,000;    0,000
 519,23; 1241,000; 4397,000;    0,000
 519,51;  927,000; 4469,000;    0,000
 519,79; 1113,000; 4456,000;    0,000
 520,07; 1734,000; 5776,000;    0,000
 520,35;  835,000; 4760,000;    0,000
 520,63; 1006,000; 5546,000;    0,000
 520,91; 1075,000; 5251,000;    0,000
 521,19;  620,000; 5085,000;    0,000
 521,47; 1074,000; 5583,000;    0,000
 521,75;  597,000; 5677,000;    0,000
 522,03; 1112,000; 5938,000;    0,000
 522,30;  913,000; 6007,000;    0,000
 522,58;  787,000; 5977,000;    0,000
 522,86;  695,000; 6549,000;    0,000
 523,14;  862,000; 6339,000;    0,000
 523,42;  672,000; 6334,000;    0,000
 523,70;  780,000; 6814,000;    0,000
 523,98; 1023,000; 7436,000;    0,000
 524,26;  969,000; 7677,000;    0,000
 524,54; 1589,000; 8267,000;    0,000
 524,81; 1181,000; 8256,000;    0,000
 525,09;  718,000; 8178,000;    0,000
 525,37;  801,000; 7717,000;    0,000
 525,65;  924,000; 8142,000;    0,000
 525,93; 1268,000; 8888,000;    0,000
 526,21;  858,000; 8987,000;    0,000
 526,49;  878,000; 9278,000;    0,000
 526,76;  546,000; 9214,000;    0,000
 527,04;  765,000; 9938,000;    0,000
 527,32;  718,000; 9701,000;    0,000
 527,60;  964,000;10536,000;    0,000
 527,88;  875,000;10248,000;    0,000
 528,16; 1028,000;10856,000;    0,000
 528,44;  688,000;11050,000;    0,000
 528,71; 1236,000;11907,000;    0,000
 528,99;  688,000;11363,000;    0,000
 529,27;  773,000;11647,000;    0,000
 529,55;  490,000;12481,000;    0,000
 529,83; 1289,000;12964,000;    0,000
 530,11;  894,000;13649,000;    0,000
 530,38;  697,000;13582,000;    0,000
 530,66;  642,000;13373,000;    0,000
 530,94;  768,000;13937,000;    0,000
 531,22; 1230,000;14921,000;    0,000
 531,50; 1386,000;15401,000;    0,000
 531,77;  688,000;15630,000;    0,000
 532,05; 1142,000;15619,000;    0,000
 532,33;  682,000;15592,000;    0,000
 532,61;  750,000;15765,000;    0,000
 532,89; 1113,000;17278,000;    0,000
 533,16;  963,000;17114,000;    0,000
 533,44;  811,000;17187,000;    0,000
 533,72; 1206,000;18127,000;    0,000
 534,00;  675,000;18238,000;    0,000
 534,28;  794,000;18714,000;    0,000
 534,55;  967,000;18950,000;    0,000
 534,83; 1185,000;19930,000;    0,000
 535,11; 1503,000;20731,000;    0,000
 535,39; 1081,000;21072,000;    0,000
 535,66;  757,000;21072,000;    0,000
 535,94; 1101,000;21364,000;    0,000
 536,22;  978,000;21940,000;    0,000
 536,50;  811,000;22480,000;    0,000
 536,78;  814,000;22709,000;    0,000
 537,05; 1534,000;23687,000;    0,000
 537,33;  898,000;23579,000;    0,000
 537,61; 1020,000;24523,000;    0,000
 537,89;  875,000;25001,000;    0,000
 538,16; 1156,000;25281,000;    0,000
 538,44; 1127,000;25983,000;    0,000
 538,72; 1034,000;27302,000;    0,000
 539,00; 1056,000;26819,000;    0,000
 539,27; 1117,000;28171,000;    0,000
 539,55; 1002,000;28236,000;    0,000
 539,83;  761,000;29092,000;    0,000
 540,11;  845,000;28720,000;    0,000
 540,38; 1515,000;30618,000;    0,000
 540,66; 1142,000;31415,000;    0,000
 540,94; 1292,000;30709,000;    0,000
 541,21;  858,000;31581,000;    0,000
 541,49; 1012,000;31463,000;    0,000
 541,77; 1361,000;32646,000;    0,000
 542,05; 1224,000;33736,000;    0,000
 542,32; 1078,000;34120,000;    0,000
 542,60; 1708,000;35301,000;    0,000
 542,88;  934,000;35213,000;    0,000
 543,15; 1416,000;35794,000;    0,000
 543,43;  768,000;36443,000;    0,000
 543,71; 1382,000;37173,000;    0,000
 543,98;  974,000;37700,000;    0,000
 544,26; 1338,000;38589,000;    0,000
 544,54; 1540,000;39366,000;    0,000
 544,82; 1479,000;39588,000;    0,000
 545,09; 1175,000;40032,000;    0,000
 545,37; 1292,000;40831,000;    0,000
 545,65;  971,000;41062,000;    0,000
 545,92; 1065,000;41476,000;    0,000
 546,20;  753,000;41717,000;    0,000
 546,48; 1769,000;42987,000;    0,000
 546,75; 1682,000;43555,000;    0,000
 547,03;  991,000;43568,000;    0,000
 547,31; 1128,000;44163,000;    0,000
 547,58; 1226,000;44851,000;    0,000
 547,86; 1150,000;45553,000;    0,000
 548,14; 1378,000;46050,000;    0,000
 548,41; 1045,000;47173,000;    0,000
 548,69; 1351,000;47310,000;    0,000
 548,97;  997,000;47961,000;    0,000
 549,24; 1190,000;48039,000;    0,000
 549,52; 1559,000;49120,000;    0,000
 549,80; 1260,000;49063,000;    0,000
 550,07; 1225,000;49890,000;    0,000
 550,35;  986,000;49777,000;    0,000
 550,62; 1025,000;50421,000;    0,000
 550,90; 1377,000;51281,000;    0,000
 551,18; 1050,000;51315,000;    0,000
 551,45; 1256,000;52820,000;    0,000
 551,73;  789,000;52194,000;    0,000
 552,01; 1516,000;53145,000;    0,000
 552,28;  898,000;53432,000;    0,000
 552,56; 1212,000;53936,000;    0,000
 552,83;  854,000;53919,000;    0,000
 553,11; 1528,000;54790,000;    0,000
 553,39; 2596,000;56254,000;    0,000
 553,66; 1176,000;55547,000;    0,000
 553,94;  968,000;54985,000;    0,000
 554,22; 1402,000;56210,000;    0,000
 554,49;  860,000;55416,000;    0,000
 554,77; 1301,000;56724,000;    0,000
 555,04; 1136,000;56291,000;    0,000
 555,32;  877,000;56725,000;    0,000
 555,59;  953,000;57306,000;    0,000
 555,87; 1543,000;57517,000;    0,000
 556,15; 1004,000;57863,000;    0,000
 556,42; 1343,000;57232,000;    0,000
 556,70;  618,000;57520,000;    0,000
 556,97; 1102,000;57942,000;    0,000
 557,25;  855,000;57428,000;    0,000
 557,53; 1191,000;58122,000;    0,000
 557,80;  785,000;57741,000;    0,000
 558,08; 1290,000;58813,000;    0,000
 558,35;  921,000;58584,000;    0,000
 558,63; 1183,000;58539,000;    0,000
 558,90; 1301,000;58924,000;    0,000
 559,18; 1434,000;58423,000;    0,000
 559,45; 1147,000;58098,000;    0,000
 559,73; 1198,000;58663,000;    0,000
 560,01; 1175,000;59019,000;    0,000
 560,28;  946,000;58261,000;    0,000
 560,56;  823,000;59041,000;    0,000
 560,83; 1649,000;58234,000;    0,000
 561,11; 1225,000;58589,000;    0,000
 561,38;  961,000;58484,000;    0,000
 561,66; 1209,000;58334,000;    0,000
 561,93; 1467,000;57989,000;    0,000
 562,21;  584,000;57480,000;    0,000
 562,48; 1424,000;58567,000;    0,000
 562,76; 1344,000;58147,000;    0,000
 563,03; 1366,000;57790,000;    0,000
 563,31; 1873,000;58248,000;    0,000
 563,58; 1573,000;57371,000;    0,000
 563,86;  992,000;56991,000;    0,000
 564,13; 1451,000;57768,000;    0,000
 564,41;  863,000;56078,000;    0,000
 564,68; 1588,000;55889,000;    0,000
 564,96;  936,000;55503,000;    0,000
 565,23; 1381,000;56270,000;    0,000
 565,51; 1273,000;54991,000;    0,000
 565,78; 1581,000;55314,000;    0,000
 566,06; 1014,000;54666,000;    0,000
 566,33; 1867,000;55070,000;    0,000
 566,61; 1554,000;54876,000;    0,000
 566,88; 1000,000;54222,000;    0,000
 567,16; 1484,000;53574,000;    0,000
 567,43; 1748,000;53802,000;    0,000
 567,71;  977,000;52192,000;    0,000
 567,98; 1392,000;52451,000;    0,000
 568,26; 1004,000;51768,000;    0,000
 568,53; 1451,000;51500,000;    0,000
 568,81; 1138,000;51300,000;    0,000
 569,08;  902,000;49963,000;    0,000
 569,36;  862,000;49381,000;    0,000
 569,63; 1153,000;49107,000;    0,000
 569,91;  885,000;48993,000;    0,000
 570,18; 1240,000;48793,000;    0,000
 570,45; 1155,000;48175,000;    0,000
 570,73; 1092,000;47853,000;    0,000
 571,00; 1182,000;46915,000;    0,000
 571,28; 1212,000;46313,000;    0,000
 571,55; 1370,000;47116,000;    0,000
 571,83; 1353,000;46390,000;    0,000
 572,10; 1094,000;45600,000;    0,000
 572,38; 1680,000;45434,000;    0,000
 572,65;  938,000;44038,000;    0,000
 572,92; 1658,000;43897,000;    0,000
 573,20; 1298,000;43456,000;    0,000
 573,47; 1394,000;42643,000;    0,000
 573,75; 1290,000;41350,000;    0,000
 574,02; 1660,000;41856,000;    0,000
 574,29; 1479,000;41610,000;    0,000
 574,57; 1668,000;39789,000;    0,000
 574,84; 1597,000;40617,000;    0,000
 575,12; 1506,000;39762,000;    0,000
 575,39; 1388,000;39221,000;    0,000
 575,66; 1435,000;38302,000;    0,000
 575,94; 1464,000;38208,000;    0,000
 576,21; 1606,000;36707,000;    0,000
 576,49; 1535,000;37170,000;    0,000
 576,76; 1835,000;36167,000;    0,000
 577,03; 1057,000;35080,000;    0,000
 577,31; 1469,000;35565,000;    0,000
 577,58; 1653,000;34755,000;    0,000
 577,86; 1571,000;34410,000;    0,000
 578,13; 1505,000;33671,000;    0,000
 578,40; 2006,000;34099,000;    0,000
 578,68; 1514,000;32372,000;    0,000
 578,95; 1968,000;32100,000;    0,000
 579,22; 2197,000;32474,000;    0,000
 579,50; 1736,000;30908,000;    0,000
 579,77; 1331,000;30321,000;    0,000
 580,05; 1758,000;30637,000;    0,000
 580,32; 1498,000;29683,000;    0,000
 580,59; 1970,000;29998,000;    0,000
 580,87; 1878,000;28549,000;    0,000
 581,14; 2051,000;28457,000;    0,000
 581,41; 1783,000;27574,000;    0,000
 581,69; 2208,000;27204,000;    0,000
 581,96; 1593,000;27366,000;    0,000
 582,23; 2158,000;26801,000;    0,000
 582,51; 1681,000;26236,000;    0,000
 582,78; 3019,000;26658,000;    0,000
 583,05; 1604,000;24697,000;    0,000
 583,33; 2208,000;24742,000;    0,000
 583,60; 1743,000;23914,000;    0,000
 583,87; 2308,000;23819,000;    0,000
 584,15; 2197,000;24000,000;    0,000
 584,42; 2437,000;22679,000;    0,000
 584,69; 2704,000;23158,000;    0,000
 584,96; 2443,000;21252,000;    0,000
 585,24; 2260,000;21659,000;    0,000
 585,51; 2726,000;20901,000;    0,000
 585,78; 2088,000;20193,000;    0,000
 586,06; 2681,000;20858,000;    0,000
 586,33; 2601,000;20471,000;    0,000
 586,60; 2459,000;19536,000;    0,000
 586,88; 2139,000;19434,000;    0,000
 587,15; 2557,000;19385,000;    0,000
 587,42; 2322,000;18312,000;    0,000
 587,69; 2618,000;18042,000;    0,000
 587,97; 2807,000;18361,000;    0,000
 588,24; 3363,000;18130,000;    0,000
 588,51; 2730,000;17276,000;    0,000
 588,79; 3060,000;17153,000;    0,000
 589,06; 3469,000;16922,000;    0,000
 589,33; 3127,000;16123,000;    0,000
 589,60; 2885,000;16020,000;    0,000
 589,88; 3280,000;16053,000;    0,000
 590,15; 3438,000;16054,000;    0,000
 590,42; 3144,000;15120,000;    0,000
 590,69; 3299,000;14831,000;    0,000
 590,97; 3616,000;14593,000;    0,000
 591,24; 3264,000;13726,000;    0,000
 591,51; 3450,000;13986,000;    0,000
 591,78; 3674,000;13757,000;    0,000
 592,06; 4121,000;13626,000;    0,000
 592,33; 3372,000;12484,000;    0,000
 592,60; 3755,000;13090,000;    0,000
 592,87; 3091,000;11836,000;    0,000
 593,15; 4386,000;12677,000;    0,000
 593,42; 4704,000;12896,000;    0,000
 593,69; 4383,000;12169,000;    0,000
 593,96; 4091,000;11386,000;    0,000
 594,23; 5073,000;12067,000;    0,000
 594,51; 3727,000;10434,000;    0,000
 594,78; 4281,000;11027,000;    0,000
 595,05; 4083,000;10304,000;    0,000
 595,32; 4997,000;10810,000;    0,000
 595,59; 4242,000;10055,000;    0,000
 595,87; 4719,000; 9682,000;    0,000
 596,14; 4308,000; 9587,000;    0,000
 596,41; 5339,000; 9953,000;    0,000
 596,68; 4532,000; 8896,000;    0,000
 596,95; 5510,000; 9110,000;    0,000
 597,23; 5135,000; 8842,000;    0,000
 597,50; 5523,000; 8770,000;    0,000
 597,77; 6065,000; 9422,000;    0,000
 598,04; 5613,000; 8385,000;    0,000
 598,31; 6373,000; 8634,000;    0,000
 598,59; 6101,000; 8264,000;    0,000
 598,86; 6139,000; 8246,000;    0,000
 599,13; 6014,000; 7076,000;    0,000
 599,40; 6858,000; 8034,000;    0,000
 599,67; 6386,000; 7332,000;    0,000
 599,94; 6610,000; 6949,000;    0,000
 600,22; 7325,000; 7394,000;    0,000
 600,49; 6833,000; 6533,000;    0,000
 600,76; 6892,000; 6472,000;    0,000
 601,03; 7239,000; 6293,000;    0,000
 601,30; 7708,000; 6445,000;    0,000
 601,57; 8234,000; 6366,000;    0,000
 601,84; 8534,000; 7195,000;    0,000
 602,12; 8168,000; 5817,000;    0,000
 602,39; 8369,000; 6101,000;    0,000
 602,66; 9290,000; 6090,000;    0,000
 602,93; 9622,000; 5922,000;    0,000
 603,20; 9237,000; 5601,000;    0,000
 603,47; 9919,000; 5407,000;    0,000
 603,74; 9448,000; 5064,000;    0,000
 604,02;10068,000; 5534,000;    0,000
 604,29;10219,000; 5308,000;    0,000
 604,56;10054,000; 4531,000;    0,000
 604,83;10455,000; 4773,000;    0,000
 605,10;11361,000; 4687,000;    0,000
 605,37;12126,000; 4610,000;    0,000
 605,64;12015,000; 4767,000;    0,000
 605,91;12163,000; 4597,000;    0,000
 606,18;12311,000; 4053,000;    0,000
 606,45;12612,000; 3789,000;    0,000
 606,73;14030,000; 4230,000;    0,000
 607,00;12995,000; 3867,000;    0,000
 607,27;13643,000; 3567,000;    0,000
 607,54;14373,000; 3926,000;    0,000
 607,81;15455,000; 4069,000;    0,000
 608,08;14943,000; 3474,000;    0,000
 608,35;16471,000; 3754,000;    0,000
 608,62;16327,000; 3243,000;    0,000
 608,89;17262,000; 3472,000;    0,000
 609,16;17801,000; 3722,000;    0,000
 609,43;18237,000; 4008,000;    0,000
 609,70;18421,000; 3498,000;    0,000
 609,97;18727,000; 2796,000;    0,000
 610,25;19189,000; 3105,000;    0,000
 610,52;19750,000; 2654,000;    0,000
 610,79;19860,000; 2499,000;    0,000
 611,06;20988,000; 2850,000;    0,000
 611,33;21195,000; 2639,000;    0,000
 611,60;22682,000; 3033,000;    0,000
 611,87;22459,000; 2552,000;    0,000
 612,14;23509,000; 2518,000;    0,000
 612,41;23294,000; 2304,000;    0,000
 612,68;24595,000; 2528,000;    0,000
 612,95;25017,000; 2372,000;    0,000
 613,22;26371,000; 2973,000;    0,000
 613,49;26148,000; 2096,000;    0,000
 613,76;27466,000; 2197,000;    0,000
 614,03;27929,000; 1919,000;    0,000
 614,30;29052,000; 2609,000;    0,000
 614,57;29405,000; 2096,000;    0,000
 614,84;30299,000; 2063,000;    0,000
 615,11;30523,000; 2084,000;    0,000
 615,38;31664,000; 2004,000;    0,000
 615,65;32704,000; 2186,000;    0,000
 615,92;32812,000; 1951,000;    0,000
 616,19;33409,000; 2017,000;    0,000
 616,46;34433,000; 1909,000;    0,000
 616,73;35290,000; 2099,000;    0,000
 617,00;35971,000; 2336,000;    0,000
 617,27;35938,000; 2001,000;    0,000
 617,54;37546,000; 2021,000;    0,000
 617,81;37736,000; 1678,000;    0,000
 618,08;38576,000; 1770,000;    0,000
 618,35;38815,000; 1531,000;    0,000
 618,62;39838,000; 2073,000;    0,000
 618,89;41253,000; 1594,000;    0,000
 619,16;41245,000; 1172,000;    0,000
 619,43;42026,000; 1380,000;    0,000
 619,70;42365,000; 1268,000;    0,000
 619,97;42987,000; 1776,000;    0,000
 620,24;45232,000; 2004,000;    0,000
 620,51;45028,000; 1163,000;    0,000
 620,78;45860,000; 1283,000;    0,000
 621,05;46440,000; 1443,000;    0,000
 621,32;46879,000; 1453,000;    0,000
 621,59;47434,000; 1243,000;    0,000
 621,86;48401,000; 1914,000;    0,000
 622,12;48770,000; 1961,000;    0,000
 622,39;49253,000; 1446,000;    0,000
 622,66;49505,000; 1118,000;    0,000
 622,93;50712,000;  870,000;    0,000
 623,20;51006,000;  946,000;    0,000
 623,47;51428,000;  905,000;    0,000
 623,74;51218,000; 1014,000;    0,000
 624,01;52086,000;  852,000;    0,000
 624,28;52918,000; 1048,000;    0,000
 624,55;52738,000;  806,000;    0,000
 624,82;53694,000;  956,000;    0,000
 625,09;53520,000;  988,000;    0,000
 625,36;54619,000; 1091,000;    0,000
 625,62;55046,000; 1283,000;    0,000
 625,89;54199,000;  764,000;    0,000
 626,16;54586,000;  833,000;    0,000
 626,43;55360,000;  803,000;    0,000
 626,70;56153,000; 1198,000;    0,000
 626,97;55603,000;  847,000;    0,000
 627,24;55475,000;  973,000;    0,000
 627,51;55105,000;  442,000;    0,000
 627,78;56009,000;  638,000;    0,000
 628,04;55740,000; 1074,000;    0,000
 628,31;55683,000;  742,000;    0,000
 628,58;56509,000; 1304,000;    0,000
 628,85;55854,000;  472,000;    0,000
 629,12;56514,000;  904,000;    0,000
 629,39;55623,000;  622,000;    0,000
 629,66;56477,000; 1332,000;    0,000
 629,93;55376,000;  831,000;    0,000
 630,19;54865,000;  403,000;    0,000
 630,46;55472,000;  525,000;    0,000
 630,73;54331,000;  700,000;    0,000
 631,00;55474,000;  693,000;    0,000
 631,27;53706,000;  737,000;    0,000
 631,54;54076,000;  414,000;    0,000
 631,80;53880,000;  548,000;    0,000
 632,07;53699,000;  401,000;    0,000
 632,34;53129,000;  558,000;    0,000
 632,61;53616,000;  543,000;    0,000
 632,88;53070,000;  392,000;    0,000
 633,15;53123,000;  565,000;    0,000
 633,41;51917,000;  736,000;    0,000
 633,68;51308,000;  626,000;    0,000
 633,95;50646,000;  433,000;    0,000
 634,22;50820,000;  353,000;    0,000
 634,49;49777,000;  326,000;    0,000
 634,76;50610,000; 1167,000;    0,000
 635,02;49044,000;  446,000;    0,000
 635,29;49072,000;  567,000;    0,000
 635,56;48284,000;  464,000;    0,000
 635,83;48058,000;  898,000;    0,000
 636,10;46463,000;  233,000;    0,000
 636,36;47015,000;  724,000;    0,000
 636,63;45640,000;  301,000;    0,000
 636,90;46001,000;  773,000;    0,000
 637,17;44069,000;  230,000;    0,000
 637,43;44049,000;  199,000;    0,000
 637,70;43421,000; 1135,000;    0,000
 637,97;43633,000; 1259,000;    0,000
 638,24;43110,000;  972,000;    0,000
 638,51;41416,000;  246,000;    0,000
 638,77;40976,000;  531,000;    0,000
 639,04;40736,000;  866,000;    0,000
 639,31;39654,000;  393,000;    0,000
 639,58;39614,000;  471,000;    0,000
 639,84;38184,000;  582,000;    0,000
 640,11;37751,000;  368,000;    0,000
 640,38;36790,000;  368,000;    0,000
 640,65;37064,000;  985,000;    0,000
 640,91;35979,000;  609,000;    0,000
 641,18;35723,000;  484,000;    0,000
 641,45;34625,000;  993,000;    0,000
 641,72;34314,000;  773,000;    0,000
 641,98;33248,000;  528,000;    0,000
 642,25;33159,000;  569,000;    0,000
 642,52;31813,000;  531,000;    0,000
 642,78;30824,000;  279,000;    0,000
 643,05;31175,000;  602,000;    0,000
 643,32;30145,000;  669,000;    0,000
 643,59;29153,000;  244,000;    0,000
 643,85;28778,000;  476,000;    0,000
 644,12;28666,000;  653,000;    0,000
 644,39;28039,000;  258,000;    0,000
 644,65;27220,000;  538,000;    0,000
 644,92;27006,000;  235,000;    0,000
 645,19;26437,000;  519,000;    0,000
 645,46;25246,000;  703,000;    0,000
 645,72;25183,000;  644,000;    0,000
 645,99;24477,000;  598,000;    0,000
 646,26;23423,000;  113,000;    0,000
 646,52;24444,000;  574,000;    0,000
 646,79;23205,000;  217,000;    0,000
 647,06;22581,000;  653,000;    0,000
 647,32;21714,000;  466,000;    0,000
 647,59;22083,000; 1007,000;    0,000
 647,86;21426,000; 1024,000;    0,000
 648,12;20176,000;  547,000;    0,000
 648,39;20220,000;  604,000;    0,000
 648,66;19896,000;  578,000;    0,000
 648,92;18485,000;  237,000;    0,000
 649,19;19194,000; 1025,000;    0,000
 649,46;18134,000;  341,000;    0,000
 649,72;18403,000; 1007,000;    0,000
 649,99;17490,000;  402,000;    0,000
 650,26;17620,000;  611,000;    0,000
 650,52;16777,000;  806,000;    0,000
 650,79;16836,000;  453,000;    0,000
 651,06;16223,000;  849,000;    0,000
 651,32;15682,000;  392,000;    0,000
 651,59;14802,000;   85,000;    0,000
 651,85;15198,000;  526,000;    0,000
 652,12;14158,000;  424,000;    0,000
 652,39;15149,000;  519,000;    0,000
 652,65;14461,000;  579,000;    0,000
 652,92;14688,000;  967,000;    0,000
 653,19;13741,000;  852,000;    0,000
 653,45;13288,000;  677,000;    0,000
 653,72;13110,000;  659,000;    0,000
 653,98;13338,000;  756,000;    0,000
 654,25;12818,000; 1337,000;    0,000
 654,52;12886,000; 1223,000;    0,000
 654,78;12642,000; 1032,000;    0,000
 655,05;12478,000; 1120,000;    0,000
 655,31;12329,000; 1275,000;    0,000
 655,58;11400,000;  761,000;    0,000
 655,85;11227,000;  681,000;    0,000
 656,11;11366,000;  613,000;    0,000
 656,38;11159,000;  611,000;    0,000
 656,64;11150,000;  542,000;    0,000
 656,91;11192,000; 1120,000;    0,000
 657,18;10209,000;  571,000;    0,000
 657,44;10513,000;  482,000;    0,000
 657,71;10139,000;  432,000;    0,000
 657,97; 9827,000;  608,000;    0,000
 658,24;10647,000; 1125,000;    0,000
 658,50;10320,000;  853,000;    0,000
 658,77;10218,000; 1054,000;    0,000
 659,03; 9801,000;  777,000;    0,000
 659,30;10071,000; 1209,000;    0,000
 659,57; 9133,000;  562,000;    0,000
 659,83; 9189,000;  573,000;    0,000
 660,10; 9405,000;  994,000;    0,000
 660,36; 9320,000;  747,000;    0,000
 660,63; 9015,000;  836,000;    0,000
 660,89; 9196,000;  582,000;    0,000
 661,16; 8812,000;  894,000;    0,000
 661,42; 9398,000; 1012,000;    0,000
 661,69; 8622,000;  841,000;    0,000
 661,95; 8989,000;  733,000;    0,000
 662,22; 8296,000;  612,000;    0,000
 662,48; 8967,000; 1048,000;    0,000
 662,75; 8561,000;  855,000;    0,000
 663,01; 9076,000; 1107,000;    0,000
 663,28; 8472,000;  972,000;    0,000
 663,54; 8767,000; 1025,000;    0,000
 663,81; 8607,000; 1005,000;    0,000
 664,07; 8684,000; 1194,000;    0,000
 664,34; 8550,000; 1365,000;    0,000
 664,60; 8691,000; 3039,000;    0,000
 664,87; 8143,000;  894,000;    0,000
 665,13; 8383,000; 1071,000;    0,000
 665,40; 7996,000;  944,000;    0,000
 665,66; 8170,000;  763,000;    0,000
 665,93; 8135,000;  933,000;    0,000
 666,19; 8911,000; 1824,000;    0,000
 666,46; 8535,000; 1375,000;    0,000
 666,72; 8155,000; 1385,000;    0,000
 666,99; 8103,000;  655,000;    0,000
 667,25; 7935,000; 1129,000;    0,000
 667,52; 8041,000; 1091,000;    0,000
 667,78; 8069,000;  762,000;    0,000
 668,05; 8109,000; 1344,000;    0,000
 668,31; 8073,000; 1198,000;    0,000
 668,57; 8265,000; 1416,000;    0,000
 668,84; 8752,000; 1686,000;    0,000
 669,10; 8122,000; 1348,000;    0,000
 669,37; 7980,000; 1169,000;    0,000
 669,63; 7880,000; 1048,000;    0,000
 669,90; 8244,000;  943,000;    0,000
 670,16; 8724,000; 1442,000;    0,000
 670,43; 8130,000; 1157,000;    0,000
 670,69; 8640,000; 1800,000;    0,000
 670,95; 8125,000;  993,000;    0,000
 671,22; 7970,000; 1113,000;    0,000
 671,48; 8431,000; 1256,000;    0,000
 671,75; 7801,000; 1396,000;    0,000
 672,01; 8187,000; 1173,000;    0,000
 672,28; 7806,000; 1042,000;    0,000
 672,54; 8194,000; 1051,000;    0,000
 672,80; 8221,000; 1603,000;    0,000
 673,07; 8474,000; 1241,000;    0,000
 673,33; 7571,000; 1100,000;    0,000
 673,60; 8004,000; 1222,000;    0,000
 673,86; 7979,000; 1331,000;    0,000
 674,12; 8546,000; 1454,000;    0,000
 674,39; 8585,000; 1786,000;    0,000
 674,65; 8075,000; 1363,000;    0,000
 674,91; 7910,000; 1258,000;    0,000
 675,18; 7923,000; 1120,000;    0,000
 675,44; 8375,000; 1654,000;    0,000
 675,71; 7854,000; 1314,000;    0,000
 675,97; 7831,000; 1213,000;    0,000
 676,23; 8298,000; 1344,000;    0,000
 676,50; 7799,000; 1081,000;    0,000
 676,76; 8505,000; 1286,000;    0,000
 677,02; 8159,000;  986,000;    0,000
 677,29; 8247,000; 1389,000;    0,000
 677,55; 8141,000; 1243,000;    0,000
 677,81; 8549,000; 1367,000;    0,000
 678,08; 7920,000; 1174,000;    0,000
 678,34; 8901,000; 1622,000;    0,000
 678,61; 8127,000; 1064,000;    0,000
 678,87; 8544,000; 1382,000;    0,000
 679,13; 8146,000;  957,000;    0,000
 679,40; 8783,000; 1342,000;    0,000
 679,66; 8174,000; 1264,000;    0,000
 679,92; 8375,000; 1195,000;    0,000
 680,18; 8522,000; 1392,000;    0,000
 680,45; 8726,000; 1463,000;    0,000
 680,71; 8423,000; 1208,000;    0,000
 680,97; 8048,000;  967,000;    0,000
 681,24; 8105,000; 1171,000;    0,000
 681,50; 9052,000; 2081,000;    0,000
 681,76; 8765,000; 1433,000;    0,000
 682,03; 8691,000; 1431,000;    0,000
 682,29; 8562,000; 1003,000;    0,000
 682,55; 8656,000; 1444,000;    0,000
 682,82; 9170,000; 1362,000;    0,000
 683,08; 9070,000; 1591,000;    0,000
 683,34; 8553,000; 1237,000;    0,000
 683,60; 9052,000; 1512,000;    0,000
 683,87; 8758,000; 1557,000;    0,000
 684,13; 9542,000; 1734,000;    0,000
 684,39; 8871,000; 1433,000;    0,000
 684,66; 9464,000; 1789,000;    0,000
 684,92; 8746,000; 1443,000;    0,000
 685,18; 8662,000; 1331,000;    0,000
 685,44; 9461,000; 1762,000;    0,000
 685,71; 9173,000; 1505,000;    0,000
 685,97; 8824,000; 1726,000;    0,000
 686,23; 9024,000; 1438,000;    0,000
 686,49; 8993,000; 1381,000;    0,000
 686,76; 8790,000; 1258,000;    0,000
 687,02; 8584,000; 1354,000;    0,000
 687,28; 8589,000; 1184,000;    0,000
 687,54; 8758,000; 1316,000;    0,000
 687,81; 9200,000; 1455,000;    0,000
 688,07; 8573,000; 1284,000;    0,000
 688,33; 8851,000; 1114,000;    0,000
 688,59; 8960,000; 1583,000;    0,000
 688,86; 9136,000; 1763,000;    0,000
 689,12; 8986,000; 1357,000;    0,000
 689,38; 9462,000; 1347,000;    0,000
 689,64; 8555,000; 1388,000;    0,000
 689,90; 9349,000; 1672,000;    0,000
 690,17; 9032,000; 1853,000;    0,000
 690,43; 9106,000; 1303,000;    0,000
 690,69; 8787,000; 1241,000;    0,000
 690,95; 9083,000; 1533,000;    0,000
 691,22; 9598,000; 1789,000;    0,000
 691,48; 9571,000; 1537,000;    0,000
 691,74; 9149,000; 1387,000;    0,000
 692,00; 9119,000; 1457,000;    0,000
 692,26; 9385,000; 1682,000;    0,000
 692,52;10018,000; 1789,000;    0,000
 692,79; 9407,000; 1496,000;    0,000
 693,05; 9622,000; 1482,000;    0,000
 693,31; 9583,000; 1702,000;    0,000
 693,57; 9272,000; 1672,000;    0,000
 693,83; 9465,000; 1460,000;    0,000
 694,10; 9553,000; 1659,000;    0,000
 694,36; 9799,000; 1882,000;    0,000
 694,62; 8999,000; 1458,000;    0,000
 694,88; 9364,000; 1651,000;    0,000
 695,14;10550,000; 2099,000;    0,000
 695,40; 9308,000; 1553,000;    0,000
 695,67; 9843,000; 1466,000;    0,000
 695,93;10457,000; 2628,000;    0,000
 696,19;10051,000; 2034,000;    0,000
 696,45; 9523,000; 1813,000;    0,000
 696,71;10311,000; 2091,000;    0,000
 696,97; 9079,000; 1504,000;    0,000
 697,23; 9998,000; 1991,000;    0,000
 697,49; 9475,000; 1660,000;    0,000
 697,76; 9877,000; 1647,000;    0,000
 698,02; 9999,000; 1849,000;    0,000
 698,28; 9253,000; 1553,000;    0,000
 698,54; 9913,000; 1759,000;    0,000
 698,80; 9777,000; 1653,000;    0,000
 699,06;10190,000; 1805,000;    0,000
 699,32;10273,000; 1869,000;    0,000
 699,58; 9912,000; 1498,000;    0,000
 699,85;10204,000; 1916,000;    0,000
 700,11; 9692,000; 1494,000;    0,000
 700,37;10044,000; 1647,000;    0,000
 700,63; 9452,000; 1990,000;    0,000
 700,89;10175,000; 1968,000;    0,000
 701,15;10146,000; 1943,000;    0,000
 701,41;10647,000; 1854,000;    0,000
 701,67; 9604,000; 1617,000;    0,000
 701,93;10179,000; 1936,000;    0,000
 702,19;10077,000; 1895,000;    0,000
 702,45; 9956,000; 1770,000;    0,000
 702,72;10145,000; 2182,000;    0,000
 702,98;10587,000; 2353,000;    0,000
 703,24; 9761,000; 1777,000;    0,000
 703,50;10428,000; 2402,000;    0,000
 703,76;10170,000; 1928,000;    0,000
 704,02;10832,000; 2276,000;    0,000
 704,28;10001,000; 1610,000;    0,000
 704,54;10768,000; 2275,000;    0,000
 704,80;10218,000; 1726,000;    0,000
 705,06;10370,000; 2129,000;    0,000
 705,32;10000,000; 1853,000;    0,000
 705,58;10762,000; 2226,000;    0,000
 705,84;10200,000; 1865,000;    0,000
 706,10;11032,000; 2312,000;    0,000
 706,36;11487,000; 2994,000;    0,000
 706,62;10631,000; 2603,000;    0,000
 706,88;10377,000; 1914,000;    0,000
 707,14;10503,000; 2221,000;    0,000
 707,40;10446,000; 1721,000;    0,000
 707,66;10297,000; 1796,000;    0,000
 707,92;10287,000; 1997,000;    0,000
 708,18;10408,000; 1940,000;    0,000
 708,44; 9979,000; 1530,000;    0,000
 708,70;10832,000; 1977,000;    0,000
 708,96;10526,000; 2219,000;    0,000
 709,22;11259,000; 2281,000;    0,000
 709,48;10996,000; 2227,000;    0,000
 709,74;11327,000; 2698,000;    0,000
 710,00;10866,000; 2192,000;    0,000
 710,26;10674,000; 1858,000;    0,000
 710,52;10237,000; 1566,000;    0,000
 710,78;10577,000; 1858,000;    0,000
 711,04;10243,000; 2040,000;    0,000
 711,30;10152,000; 1449,000;    0,000
 711,56;10573,000; 1758,000;    0,000
 711,82;11328,000; 2394,000;    0,000
 712,08;10178,000; 1452,000;    0,000
 712,34;10659,000; 2633,000;    0,000
 712,60;11446,000; 2734,000;    0,000
 712,86;11182,000; 2306,000;    0,000
 713,12;10500,000; 2352,000;    0,000
 713,38;10014,000; 1535,000;    0,000
 713,64;10109,000; 1774,000;    0,000
 713,90;10542,000; 1738,000;    0,000
 714,16; 9915,000; 1646,000;    0,000
 714,42;10457,000; 1799,000;    0,000
 714,68;10777,000; 2275,000;    0,000
 714,94;11098,000; 2378,000;    0,000
 715,20;10515,000; 1936,000;    0,000
 715,45;10325,000; 1814,000;    0,000
 715,71;10268,000; 1979,000;    0,000
 715,97; 9962,000; 1702,000;    0,000
 716,23;10623,000; 2300,000;    0,000
 716,49;10683,000; 2311,000;    0,000
 716,75;10118,000; 1566,000;    0,000
 717,01;10643,000; 2094,000;    0,000
 717,27;10065,000; 1644,000;    0,000
 717,53;11269,000; 2251,000;    0,000
 717,79;10045,000; 1599,000;    0,000
 718,05;11576,000; 2878,000;    0,000
 718,31; 9901,000; 1592,000;    0,000
 718,56;10576,000; 1887,000;    0,000
 718,82; 9862,000; 1847,000;    0,000
 719,08;10624,000; 1816,000;    0,000
 719,34; 9836,000; 1324,000;    0,000
 719,60;10170,000; 1967,000;    0,000
 719,86;10006,000; 1651,000;    0,000
 720,12;10262,000; 1424,000;    0,000
 720,38;10412,000; 1749,000;    0,000
 720,63;11343,000; 2537,000;    0,000
 720,89;11351,000; 2445,000;    0,000
 721,15;10518,000; 2174,000;    0,000
 721,41; 9961,000; 1509,000;    0,000
 721,67;10115,000; 1695,000;    0,000
 721,93;10599,000; 2046,000;    0,000
 722,19;10579,000; 1999,000;    0,000
 722,44;10235,000; 2024,000;    0,000
 722,70;10578,000; 1975,000;    0,000
 722,96;10227,000; 2057,000;    0,000
 723,22;10763,000; 1948,000;    0,000
 723,48; 9903,000; 1729,000;    0,000
 723,74;11167,000; 2315,000;    0,000
 723,99;10885,000; 2253,000;    0,000
 724,25;11267,000; 2555,000;    0,000
 724,51;11001,000; 2325,000;    0,000
 724,77;10839,000; 2125,000;    0,000
 725,03;11235,000; 2249,000;    0,000
 725,29;11244,000; 1923,000;    0,000
 725,54;10665,000; 2259,000;    0,000
 725,80;11210,000; 2285,000;    0,000
 726,06;10969,000; 1900,000;    0,000
 726,32;11229,000; 1833,000;    0,000
 726,58;11214,000; 2285,000;    0,000
 726,83;11470,000; 2360,000;    0,000
 727,09;11655,000; 2354,000;    0,000
 727,35;11394,000; 2205,000;    0,000
 727,61;11262,000; 2008,000;    0,000
 727,87;11544,000; 2109,000;    0,000
 728,12;11693,000; 2389,000;    0,000
 728,38;12227,000; 2440,000;    0,000
 728,64;11985,000; 2580,000;    0,000
 728,90;11938,000; 2413,000;    0,000
 729,15;11418,000; 2096,000;    0,000
 729,41;11982,000; 2385,000;    0,000
 729,67;12631,000; 2933,000;    0,000
 729,93;11774,000; 2181,000;    0,000
 730,18;11171,000; 2004,000;    0,000
 730,44;11608,000; 2219,000;    0,000
 730,70;11285,000; 1932,000;    0,000
 730,96;12075,000; 2281,000;    0,000
 731,21;10963,000; 1992,000;    0,000
 731,47;11987,000; 2679,000;    0,000
 731,73;11022,000; 2405,000;    0,000
 731,99;12222,000; 3041,000;    0,000
 732,24;11315,000; 2618,000;    0,000
 732,50;11929,000; 2797,000;    0,000
 732,76;11555,000; 2457,000;    0,000
 733,02;11880,000; 3119,000;    0,000
 733,27;11627,000; 3028,000;    0,000
 733,53;11149,000; 2718,000;    0,000
 733,79;11608,000; 3222,000;    0,000
 734,04;11409,000; 2725,000;    0,000
 734,30;11178,000; 2751,000;    0,000
 734,56;11461,000; 2683,000;    0,000
 734,82;11276,000; 2596,000;    0,000
 735,07;11257,000; 2928,000;    0,000
 735,33;10798,000; 2530,000;    0,000
 735,59;11664,000; 3308,000;    0,000
 735,84;11146,000; 3215,000;    0,000
 736,10;11165,000; 2673,000;    0,000
 736,36;10812,000; 2739,000;    0,000
 736,61;10922,000; 3064,000;    0,000
 736,87;10244,000; 2389,000;    0,000
 737,13; 9740,000; 2402,000;    0,000
 737,38; 9692,000; 2270,000;    0,000
 737,64; 9967,000; 2428,000;    0,000
 737,90; 9209,000; 2403,000;    0,000
 738,15;10203,000; 2815,000;    0,000
 738,41; 9750,000; 2882,000;    0,000
 738,67; 9217,000; 2260,000;    0,000
 738,92; 9027,000; 2379,000;    0,000
 739,18; 9868,000; 2968,000;    0,000
 739,44; 9335,000; 2651,000;    0,000
 739,69; 9176,000; 2540,000;    0,000
 739,95; 8706,000; 2313,000;    0,000
 740,21; 9509,000; 2756,000;    0,000
 740,46; 8712,000; 2407,000;    0,000
 740,72; 9307,000; 2500,000;    0,000
 740,98; 8762,000; 2835,000;    0,000
 741,23; 8516,000; 2321,000;    0,000
 741,49; 8894,000; 2739,000;    0,000
 741,74; 8463,000; 2434,000;    0,000
 742,00; 8531,000; 1951,000;    0,000
 742,26; 8300,000; 2156,000;    0,000
 742,51; 7944,000; 1986,000;    0,000
 742,77; 7560,000; 1810,000;    0,000
 743,02; 7733,000; 2234,000;    0,000
 743,28; 7131,000; 1586,000;    0,000
 743,54; 7322,000; 1781,000;    0,000
 743,79; 7571,000; 2300,000;    0,000
 744,05; 6872,000; 1958,000;    0,000
 744,30; 7226,000; 2212,000;    0,000
 744,56; 7461,000; 2330,000;    0,000
 744,82; 6690,000; 1915,000;    0,000
 745,07; 7151,000; 2491,000;    0,000
 745,33; 7549,000; 2316,000;    0,000
 745,58; 7321,000; 2637,000;    0,000
 745,84; 7288,000; 2676,000;    0,000
 746,09; 7035,000; 2975,000;    0,000
 746,35; 7361,000; 2746,000;    0,000
 746,61; 7666,000; 3067,000;    0,000
 746,86; 7620,000; 2669,000;    0,000
 747,12; 7388,000; 3123,000;    0,000
 747,37; 7661,000; 3450,000;    0,000
 747,63; 7336,000; 3184,000;    0,000
 747,88; 8266,000; 3676,000;    0,000
 748,14; 7798,000; 3408,000;    0,000
 748,39; 8085,000; 3290,000;    0,000
 748,65; 8042,000; 3370,000;    0,000
 748,91; 7955,000; 3157,000;    0,000
 749,16; 7241,000; 3003,000;    0,000
 749,42; 8220,000; 3463,000;    0,000
 749,67; 7542,000; 3144,000;    0,000
 749,93; 7652,000; 3246,000;    0,000
 750,18; 7867,000; 3578,000;    0,000
 750,44; 8482,000; 4068,000;    0,000
 750,69; 7742,000; 3439,000;    0,000
 750,95; 8274,000; 3667,000;    0,000
 751,20; 7716,000; 3504,000;    0,000
 751,46; 7769,000; 3356,000;    0,000
 751,71; 7959,000; 3731,000;    0,000
 751,97; 7858,000; 3596,000;    0,000
 752,22; 6997,000; 3055,000;    0,000
 752,48; 7385,000; 2901,000;    0,000
 752,73; 7632,000; 4101,000;    0,000
 752,99; 6803,000; 2790,000;    0,000
 753,24; 6943,000; 2895,000;    0,000
 753,50; 7426,000; 3368,000;    0,000
 753,75; 7478,000; 3806,000;    0,000
 754,01; 6425,000; 2547,000;    0,000
 754,26; 6311,000; 2754,000;    0,000
 754,51; 6621,000; 3080,000;    0,000
 754,77; 6073,000; 2813,000;    0,000
 755,02; 5894,000; 2336,000;    0,000
 755,28; 5964,000; 2551,000;    0,000
 755,53; 5475,000; 2074,000;    0,000
 755,79; 5460,000; 2183,000;    0,000
 756,04; 5608,000; 2469,000;    0,000
 756,30; 4965,000; 2029,000;    0,000
 756,55; 4907,000; 2124,000;    0,000
 756,81; 4633,000; 2284,000;    0,000
 757,06; 4923,000; 3036,000;    0,000
 757,31; 3870,000; 2262,000;    0,000
 757,57; 4434,000; 2305,000;    0,000
 757,82; 4441,000; 2727,000;    0,000
 758,08; 4420,000; 2417,000;    0,000
 758,33; 4701,000; 2733,000;    0,000
 758,59; 4716,000; 2994,000;    0,000
 758,84; 4383,000; 2876,000;    0,000
 759,09; 4826,000; 2738,000;    0,000
 759,35; 4296,000; 2708,000;    0,000
 759,60; 5232,000; 3403,000;    0,000
 759,86; 5154,000; 3882,000;    0,000
 760,11; 5531,000; 3843,000;    0,000
 760,36; 5489,000; 3480,000;    0,000
 760,62; 5219,000; 3507,000;    0,000
 760,87; 5096,000; 3591,000;    0,000
 761,13; 5356,000; 3560,000;    0,000
 761,38; 5741,000; 4159,000;    0,000
 761,63; 5528,000; 3781,000;    0,000
 761,89; 5399,000; 3875,000;    0,000
 762,14; 5991,000; 4452,000;    0,000
 762,39; 5186,000; 3599,000;    0,000
 762,65; 6096,000; 4038,000;    0,000
 762,90; 5332,000; 4110,000;    0,000
 763,16; 5881,000; 4216,000;    0,000
 763,41; 5395,000; 3939,000;    0,000
 763,66; 5314,000; 3574,000;    0,000
 763,92; 6000,000; 4298,000;    0,000
 764,17; 5431,000; 3874,000;    0,000
 764,42; 5552,000; 3903,000;    0,000
 764,68; 5841,000; 4068,000;    0,000
 764,93; 5295,000; 3610,000;    0,000
 765,18; 4953,000; 3538,000;    0,000
 765,44; 4907,000; 3528,000;    0,000
 765,69; 6355,000; 4890,000;    0,000
 765,94; 4690,000; 3677,000;    0,000
 766,20; 5865,000; 4772,000;    0,000
 766,45; 5498,000; 4354,000;    0,000
 766,70; 5947,000; 4289,000;    0,000
 766,96; 5315,000; 3930,000;    0,000
 767,21; 5528,000; 4269,000;    0,000
 767,46; 4888,000; 3623,000;    0,000
 767,72; 5444,000; 3920,000;    0,000
 767,97; 4937,000; 3756,000;    0,000
 768,22; 4933,000; 3730,000;    0,000
 768,47; 4762,000; 3882,000;    0,000
 768,73; 5043,000; 3580,000;    0,000
 768,98; 4124,000; 3037,000;    0,000
 769,23; 4282,000; 3073,000;    0,000
 769,49; 3784,000; 3018,000;    0,000
 769,74; 4110,000; 2530,000;    0,000
 769,99; 3753,000; 2185,000;    0,000
 770,24; 3765,000; 2503,000;    0,000
 770,50; 3197,000; 2200,000;    0,000
 770,75; 3713,000; 2422,000;    0,000
 771,00; 2799,000; 2268,000;    0,000
 771,25; 2662,000; 1677,000;    0,000
 771,51; 2786,000; 1959,000;    0,000
 771,76; 2780,000; 1765,000;    0,000
 772,01; 2892,000; 2076,000;    0,000
 772,26; 2509,000; 1755,000;    0,000
 772,52; 2559,000; 1750,000;    0,000
 772,77; 2286,000; 1570,000;    0,000
 773,02; 2482,000; 1720,000;    0,000
 773,27; 2905,000; 1931,000;    0,000
 773,53; 2422,000; 1887,000;    0,000
 773,78; 2901,000; 1982,000;    0,000
 774,03; 2533,000; 1466,000;    0,000
 774,28; 2712,000; 2081,000;    0,000
 774,54; 2600,000; 1851,000;    0,000
 774,79; 2552,000; 1866,000;    0,000
 775,04; 2598,000; 1966,000;    0,000
 775,29; 2534,000; 1736,000;    0,000
 775,54; 1900,000; 1122,000;    0,000
 775,80; 2125,000; 1476,000;    0,000
 776,05; 1832,000; 1286,000;    0,000
 776,30; 2586,000; 1496,000;    0,000
 776,55; 2271,000; 1637,000;    0,000
 776,80; 2621,000; 1880,000;    0,000
 777,06; 1790,000; 1245,000;    0,000
 777,31; 2333,000; 1748,000;    0,000
 777,56; 1493,000;  687,000;    0,000
 777,81; 1831,000; 1099,000;    0,000
 778,06; 1376,000;  649,000;    0,000
 778,32; 2058,000; 1343,000;    0,000
 778,57; 1546,000;  805,000;    0,000
 778,82; 1264,000;  504,000;    0,000
 779,07;  863,000;  265,000;    0,000
 779,32; 1139,000;  267,000;    0,000
 779,57;  629,000;   87,000;    0,000
 779,83;  910,000;  201,000;    0,000
 780,08;  684,000;  297,000;    0,000
 780,33; 1203,000;  505,000;    0,000
 780,58; 1193,000;  857,000;    0,000
 780,83; 1162,000;  556,000;    0,000
 781,08;  923,000;  556,000;    0,000
 781,33;  971,000;  447,000;    0,000
 781,59;  373,000;  -18,000;    0,000
 781,84;  642,000;  179,000;    0,000
 782,09;  639,000;  241,000;    0,000
 782,34;  649,000;   95,000;    0,000
 782,59;  735,000;  257,000;    0,000
 782,84; 1336,000;  706,000;    0,000
 783,09;  825,000;  359,000;    0,000
 783,34; 1173,000;  769,000;    0,000
 783,59;  628,000;  301,000;    0,000
 783,85;  621,000;  223,000;    0,000
 784,10;  468,000;  104,000;    0,000
 784,35; 1148,000;  734,000;    0,000
 784,60;  646,000;  388,000;    0,000
 784,85;  833,000;  405,000;    0,000
 785,10;  570,000;  507,000;    0,000
 785,35;  695,000;  171,000;    0,000
 785,60;  310,000;  -24,000;    0,000
 785,85; 1180,000;  577,000;    0,000
 786,10;  636,000;  330,000;    0,000
 786,35; 1834,000; 1314,000;    0,000
 786,61; 1209,000;  959,000;    0,000
 786,86;  952,000;  529,000;    0,000
 787,11;  612,000;  282,000;    0,000
 787,36; 1335,000; 1014,000;    0,000
 787,61;  821,000;  608,000;    0,000
 787,86;  774,000;  408,000;    0,000
 788,11;  650,000;  612,000;    0,000
 788,36;  733,000;  436,000;    0,000
 788,61;  509,000;  618,000;    0,000
 788,86; 1240,000;  875,000;    0,000
 789,11;  767,000;  923,000;    0,000
 789,36;  978,000;  723,000;    0,000
 789,61;  760,000;  895,000;    0,000
 789,86; 1380,000; 1276,000;    0,000
 790,11;  954,000; 1121,000;    0,000
 790,36; 1145,000; 1116,000;    0,000
 790,61;  833,000;  901,000;    0,000
 790,86; 1117,000; 1014,000;    0,000
 791,11; 1198,000; 1447,000;    0,000
 791,36; 1198,000; 1213,000;    0,000
 791,61; 1138,000; 1443,000;    0,000
 791,86; 1312,000; 1279,000;    0,000
 792,11; 1450,000; 1636,000;    0,000
 792,36; 1096,000; 1194,000;    0,000
 792,61; 1269,000; 1704,000;    0,000
 792,86; 1504,000; 1466,000;    0,000
 793,11; 1386,000; 1887,000;    0,000
 793,36; 1006,000; 1127,000;    0,000
 793,61;  932,000; 1230,000;    0,000
 793,86; 1418,000; 1613,000;    0,000
 794,11; 1108,000; 1310,000;    0,000
 794,36; 1734,000; 1610,000;    0,000
 794,61; 1403,000; 1915,000;    0,000
 794,86; 1505,000; 1992,000;    0,000
 795,11; 1247,000; 2018,000;    0,000
 795,36; 1981,000; 2376,000;    0,000
 795,61; 1451,000; 2436,000;    0,000
 795,86; 2145,000; 2556,000;    0,000
 796,11; 1814,000; 2457,000;    0,000
 796,36; 1811,000; 2548,000;    0,000
 796,61; 1994,000; 2823,000;    0,000
 796,86; 2081,000; 2599,000;    0,000
 797,11; 1882,000; 2489,000;    0,000
 797,36; 2530,000; 3079,000;    0,000
 797,60; 1747,000; 2595,000;    0,000
 797,85; 2726,000; 3166,000;    0,000
 798,10; 2342,000; 3433,000;    0,000
 798,35; 1838,000; 2619,000;    0,000
 798,60; 2373,000; 3061,000;    0,000
 798,85; 2097,000; 2954,000;    0,000
 799,10; 2979,000; 3524,000;    0,000
 799,35; 2496,000; 2893,000;    0,000
 799,60; 2009,000; 3003,000;    0,000
 799,85; 2450,000; 3193,000;    0,000
 800,10; 1674,000; 2512,000;    0,000
 800,34; 1845,000; 2327,000;    0,000
 800,59; 1446,000; 2292,000;    0,000
 800,84; 1632,000; 2184,000;    0,000
 801,09; 1979,000; 2768,000;    0,000
 801,34; 2208,000; 2835,000;    0,000
 801,59; 1546,000; 2169,000;    0,000
 801,84; 2074,000; 2361,000;    0,000
 802,09; 1550,000; 2103,000;    0,000
 802,34; 1687,000; 2045,000;    0,000
 802,58; 1284,000; 1925,000;    0,000
 802,83; 1944,000; 2299,000;    0,000
 803,08; 1235,000; 1954,000;    0,000
 803,33; 1848,000; 2216,000;    0,000
 803,58; 1511,000; 2384,000;    0,000
 803,83; 1943,000; 2719,000;    0,000
 804,08; 1464,000; 2447,000;    0,000
 804,32; 3039,000; 3912,000;    0,000
 804,57; 1950,000; 3065,000;    0,000
 804,82; 2199,000; 3231,000;    0,000
 805,07; 1969,000; 3501,000;    0,000
 805,32; 2727,000; 4108,000;    0,000
 805,57; 2421,000; 4379,000;    0,000
 805,81; 3086,000; 4443,000;    0,000
 806,06; 3055,000; 4791,000;    0,000
 806,31; 2914,000; 4369,000;    0,000
 806,56; 2907,000; 4769,000;    0,000
 806,81; 3474,000; 5134,000;    0,000
 807,05; 3093,000; 4781,000;    0,000
 807,30; 4235,000; 5504,000;    0,000
 807,55; 4033,000; 5770,000;    0,000
 807,80; 3805,000; 5047,000;    0,000
 808,05; 3733,000; 5154,000;    0,000
 808,29; 4158,000; 5855,000;    0,000
 808,54; 3993,000; 5809,000;    0,000
 808,79; 4168,000; 5958,000;    0,000
 809,04; 3760,000; 5653,000;    0,000
 809,29; 4058,000; 5808,000;    0,000
 809,53; 3787,000; 5671,000;    0,000
 809,78; 4610,000; 6089,000;    0,000
 810,03; 4320,000; 5852,000;    0,000
 810,28; 4311,000; 5851,000;    0,000
 810,52; 3835,000; 5809,000;    0,000
 810,77; 4161,000; 5702,000;    0,000
 811,02; 4591,000; 6390,000;    0,000
 811,27; 4293,000; 5757,000;    0,000
 811,51; 4193,000; 6167,000;    0,000
 811,76; 4125,000; 6005,000;    0,000
 812,01; 3826,000; 5648,000;    0,000
 812,26; 4315,000; 6118,000;    0,000
 812,50; 3880,000; 5606,000;    0,000
 812,75; 3942,000; 5310,000;    0,000
 813,00; 3916,000; 5520,000;    0,000
 813,25; 4434,000; 5629,000;    0,000
 813,49; 3607,000; 5186,000;    0,000
 813,74; 4113,000; 5256,000;    0,000
 813,99; 3833,000; 5192,000;    0,000
 814,23; 4191,000; 5689,000;    0,000
 814,48; 4049,000; 5716,000;    0,000
 814,73; 3597,000; 5030,000;    0,000
 814,98; 3192,000; 4597,000;    0,000
 815,22; 3402,000; 4867,000;    0,000
 815,47; 2749,000; 3816,000;    0,000
 815,72; 3130,000; 3887,000;    0,000
 815,96; 2610,000; 3778,000;    0,000
 816,21; 2385,000; 3047,000;    0,000
 816,46; 1965,000; 2695,000;    0,000
 816,70; 2344,000; 3019,000;    0,000
 816,95; 1377,000; 2181,000;    0,000
 817,20; 1700,000; 1874,000;    0,000
 817,44; 1054,000; 1423,000;    0,000
 817,69; 1148,000; 1062,000;    0,000
 817,94; 1268,000; 1045,000;    0,000
 818,18;  552,000;  351,000;    0,000
 818,43;  406,000;  226,000;    0,000
 818,68;  314,000;  114,000;    0,000
 818,92;  206,000;  372,000;    0,000
 819,17;  329,000;  313,000;    0,000
 819,42;  -68,000;  -69,000;    0,000
 819,66;   58,000;   94,000;    0,000
 819,91;  469,000;  612,000;    0,000
 820,16;  394,000;  627,000;    0,000
 820,40;  866,000; 1054,000;    0,000
 820,65;  709,000;  802,000;    0,000
 820,90;  121,000;  166,000;    0,000
 821,14;  402,000;  421,000;    0,000
 821,39;  315,000;  435,000;    0,000
 821,63;  258,000;  558,000;    0,000
 821,88;   40,000;  154,000;    0,000
 822,13;  326,000;  384,000;    0,000
 822,37;  613,000;  888,000;    0,000
 822,62;  455,000;  666,000;    0,000
 822,86;  149,000;  510,000;    0,000
 823,11;  351,000;  472,000;    0,000
 823,36;  575,000;  859,000;    0,000
 823,60; 1002,000; 1039,000;    0,000
 823,85;  721,000; 1076,000;    0,000
 824,09;  794,000; 1000,000;    0,000
 824,34;  221,000;  725,000;    0,000
 824,59;  663,000;  830,000;    0,000
 824,83;  497,000;  745,000;    0,000
 825,08;  352,000;  347,000;    0,000
 825,32;  189,000;  611,000;    0,000
 825,57;  446,000;  719,000;    0,000
 825,81;  511,000;  880,000;    0,000
 826,06;  378,000;  415,000;    0,000
 826,30;  100,000;  363,000;    0,000
 826,55;  656,000;  710,000;    0,000
 826,80;  -85,000;  549,000;    0,000
 827,04; 1249,000; 1297,000;    0,000
 827,29;  369,000;  725,000;    0,000
 827,53;  967,000; 1172,000;    0,000
 827,78;  660,000;  962,000;    0,000
 828,02;  451,000;  681,000;    0,000
 828,27;  288,000;  698,000;    0,000
 828,51;  496,000;  693,000;    0,000
 828,76;  361,000;  661,000;    0,000
 829,00;  621,000;  848,000;    0,000
 829,25;  531,000;  704,000;    0,000
 829,49;  655,000;  688,000;    0,000
 829,74;  508,000;  864,000;    0,000
 829,98;  624,000;  707,000;    0,000
 830,23;  360,000;  629,000;    0,000
 830,47;  671,000;  729,000;    0,000
 830,72;  455,000;  553,000;    0,000
 830,96;  661,000;  681,000;    0,000
 831,21; -152,000;   45,000;    0,000
 831,45;  933,000; 1051,000;    0,000
 831,70;   57,000;  234,000;    0,000
 831,94;  401,000;  307,000;    0,000
 832,19;  242,000;  476,000;    0,000
 832,43;  241,000;  301,000;    0,000
 832,68;  526,000;  635,000;    0,000
 832,92;  638,000;  414,000;    0,000
 833,17; -212,000; -119,000;    0,000
 833,41; 1012,000;  795,000;    0,000
 833,66;   62,000;  182,000;    0,000
 833,90;  424,000;  414,000;    0,000
 834,14; -125,000;   -2,000;    0,000
 834,39;  169,000;  295,000;    0,000
 834,63;  112,000;  515,000;    0,000
 834,88;  320,000;  606,000;    0,000
 835,12;  360,000;  808,000;    0,000
 835,37;  753,000;  914,000;    0,000
 835,61;  234,000;  653,000;    0,000
 835,86; 1147,000; 1520,000;    0,000
 836,10;    4,000;  652,000;    0,000
 836,34;  661,000; 1151,000;    0,000
 836,59;  278,000;  970,000;    0,000
 836,83;  596,000; 1217,000;    0,000
 837,08;  697,000; 1617,000;    0,000
 837,32;  997,000; 1677,000;    0,000
 837,56;  690,000; 1429,000;    0,000
 837,81;  806,000; 1446,000;    0,000
 838,05; 1006,000; 1966,000;    0,000
 838,30; 1144,000; 1855,000;    0,000
 838,54;  976,000; 1886,000;    0,000
 838,78; 1206,000; 2107,000;    0,000
 839,03; 1195,000; 1872,000;    0,000
 839,27; 1568,000; 2296,000;    0,000
 839,52; 1984,000; 2579,000;    0,000
 839,76; 1399,000; 2188,000;    0,000
 840,00; 2491,000; 3117,000;    0,000
 840,25; 1241,000; 2097,000;    0,000
 840,49; 1464,000; 2265,000;    0,000
 840,73; 1661,000; 2454,000;    0,000
 840,98; 1489,000; 2283,000;    0,000
 841,22; 1439,000; 2149,000;    0,000
 841,46; 1488,000; 2430,000;    0,000
 841,71; 1739,000; 2393,000;    0,000
 841,95; 1468,000; 2330,000;    0,000
 842,19; 1732,000; 2452,000;    0,000
 842,44; 1013,000; 2072,000;    0,000
 842,68; 1511,000; 2282,000;    0,000
 842,92; 1465,000; 2346,000;    0,000
 843,17; 1485,000; 2216,000;    0,000
 843,41; 1418,000; 2281,000;    0,000
 843,65; 2054,000; 2697,000;    0,000
 843,90; 1409,000; 2236,000;    0,000
 844,14; 1784,000; 2516,000;    0,000
 844,38; 1464,000; 2277,000;    0,000
 844,63; 1344,000; 1963,000;    0,000
 844,87; 1341,000; 2238,000;    0,000
 845,11; 1762,000; 2449,000;    0,000
 845,36;  888,000; 1793,000;    0,000
 845,60; 1181,000; 1729,000;    0,000
 845,84;  886,000; 1593,000;    0,000
 846,08; 1392,000; 2012,000;    0,000
 846,33; 1325,000; 1964,000;    0,000
 846,57; 1355,000; 1695,000;    0,000
 846,81;  768,000; 1404,000;    0,000
 847,06; 1556,000; 1901,000;    0,000
 847,30;  810,000; 1473,000;    0,000
 847,54; 1120,000; 1071,000;    0,000
 847,78;  915,000; 1199,000;    0,000
 848,03;  527,000;  917,000;    0,000
 848,27;  890,000; 1202,000;    0,000
 848,51;  878,000; 1101,000;    0,000
 848,75;  924,000; 1295,000;    0,000
 849,00;  817,000; 1078,000;    0,000
 849,24;  429,000;  436,000;    0,000
 849,48;  350,000;  226,000;    0,000
 849,72;  553,000;  738,000;    0,000
 849,97; 1043,000; 1022,000;    0,000
 850,21;  498,000;  726,000;    0,000
 850,45;  954,000;  935,000;    0,000
 850,69;  267,000;  544,000;    0,000
 850,94;  514,000;  502,000;    0,000
 851,18;  -29,000;  282,000;    0,000
 851,42;  480,000;  374,000;    0,000
 851,66;  693,000;  947,000;    0,000
 851,90;  457,000;  581,000;    0,000
 852,15;  467,000;  628,000;    0,000
 852,39;  359,000;  484,000;    0,000
 852,63;  156,000;  204,000;    0,000
 852,87;  988,000; 1042,000;    0,000
 853,11;  184,000;  428,000;    0,000
 853,36;  761,000;  651,000;    0,000
 853,60;  509,000;  747,000;    0,000
 853,84;  727,000;  937,000;    0,000
 854,08;  410,000;  816,000;    0,000
 854,32;  391,000;  381,000;    0,000
 854,56;  400,000;  663,000;    0,000
 854,81;  858,000; 1070,000;    0,000
 855,05;  233,000;  396,000;    0,000
 855,29; 1060,000; 1075,000;    0,000
 855,53;  119,000;  280,000;    0,000
 855,77;  673,000;  660,000;    0,000
 856,01;  197,000;  426,000;    0,000
 856,26;  360,000;  589,000;    0,000
 856,50;  354,000;  427,000;    0,000
 856,74;  -11,000;   91,000;    0,000
 856,98;  428,000;  689,000;    0,000
 857,22;  508,000;  614,000;    0,000
 857,46;  336,000;  494,000;    0,000
 857,70;  672,000;  652,000;    0,000
 857,94;  364,000;  575,000;    0,000
 858,19;  485,000;  283,000;    0,000
 858,43;   70,000;  176,000;    0,000
 858,67;  277,000;  166,000;    0,000
 858,91;  562,000;  585,000;    0,000
 859,15;  271,000;  144,000;    0,000
 859,39;  378,000;  489,000;    0,000
 859,63;  364,000;  337,000;    0,000
 859,87; 1402,000; 1396,000;    0,000
 860,11;  376,000;  315,000;    0,000
 860,35;   19,000;   91,000;    0,000
 860,60;   80,000;  -45,000;    0,000
 860,84;  -62,000;   70,000;    0,000
 861,08;  538,000;  537,000;    0,000
 861,32;  454,000;  487,000;    0,000
 861,56;  737,000;  612,000;    0,000
 861,80;  378,000;  463,000;    0,000
 862,04;  666,000;  688,000;    0,000
 862,28;  763,000;  990,000;    0,000
 862,52;  670,000;  598,000;    0,000
 862,76;  308,000;  483,000;    0,000
 863,00; 1108,000; 1098,000;    0,000
 863,24;  -41,000;  177,000;    0,000
 863,48;  589,000;  580,000;    0,000
 863,72;  513,000;  688,000;    0,000
 863,96; 1117,000; 1254,000;    0,000
 864,20;  714,000;  892,000;    0,000
 864,44;  729,000;  569,000;    0,000
 864,69;  210,000;  311,000;    0,000
 864,93;  490,000;  363,000;    0,000
 865,17;  -64,000;  152,000;    0,000
 865,41; 1350,000; 1233,000;    0,000
 865,65;   64,000;  308,000;    0,000
 865,89;  494,000;  374,000;    0,000
 866,13;  393,000;  583,000;    0,000
 866,37; 1071,000; 1073,000;    0,000
 866,61;  161,000;  338,000;    0,000
 866,85;  463,000;  587,000;    0,000
 867,09;  187,000;  412,000;    0,000
 867,33; 1228,000; 1328,000;    0,000
 867,57;  783,000;  926,000;    0,000
 867,81;  948,000;  894,000;    0,000
 868,05;  545,000;  671,000;    0,000
 868,29;  629,000;  633,000;    0,000
 868,53;  546,000;  691,000;    0,000
 868,76; 1005,000;  988,000;    0,000
 869,00;  514,000;  622,000;    0,000
 869,24; 1292,000;  980,000;    0,000
 869,48;  770,000;  772,000;    0,000
 869,72;  522,000;  412,000;    0,000
 869,96;  342,000;  597,000;    0,000
 870,20;  884,000;  822,000;    0,000
 870,44;  544,000;  719,000;    0,000
 870,68; 1280,000; 1205,000;    0,000
 870,92;  589,000;  753,000;    0,000
 871,16;  674,000;  811,000;    0,000
 871,40; 1268,000; 1452,000;    0,000
 871,64; 1339,000; 1108,000;    0,000
 871,88;  520,000;  604,000;    0,000
 872,12;  796,000;  707,000;    0,000
 872,36; 1033,000; 1079,000;    0,000
 872,60;  787,000;  851,000;    0,000
 872,83;  637,000;  687,000;    0,000
 873,07; 1405,000; 1255,000;    0,000
 873,31;  906,000;  871,000;    0,000
 873,55; 1136,000; 1258,000;    0,000
 873,79;  685,000;  649,000;    0,000
 874,03; 1034,000;  968,000;    0,000
 874,27;  650,000;  693,000;    0,000
 874,51; 1066,000;  908,000;    0,000
 874,75; 1070,000;  968,000;    0,000
 874,99; 1024,000;  947,000;    0,000
 875,22; 1001,000; 1189,000;    0,000
 875,46;  770,000;  775,000;    0,000
 875,70;  833,000;  879,000;    0,000
 875,94; 1306,000; 1099,000;    0,000
 876,18;  958,000; 1107,000;    0,000
 876,42;  830,000;  827,000;    0,000
 876,66; 1043,000; 1175,000;    0,000
 876,89; 1084,000; 1014,000;    0,000
 877,13; 1445,000; 1229,000;    0,000
 877,37; 1072,000;  802,000;    0,000
 877,61; 1155,000; 1127,000;    0,000
 877,85; 1763,000; 1670,000;    0,000
 878,09; 1754,000; 1838,000;    0,000
 878,33; 1418,000; 1203,000;    0,000
 878,56; 1164,000; 1142,000;    0,000
 878,80; 1315,000; 1142,000;    0,000
 879,04; 1457,000; 1568,000;    0,000
 879,28; 1652,000; 1668,000;    0,000
 879,52; 1185,000; 1195,000;    0,000
 879,75; 1629,000; 1618,000;    0,000
 879,99; 1447,000; 1584,000;    0,000
 880,23; 1642,000; 1369,000;    0,000
 880,47; 1612,000; 1581,000;    0,000
 880,71; 1572,000; 1706,000;    0,000
 880,95; 1838,000; 2066,000;    0,000
 881,18; 1753,000; 1757,000;    0,000
 881,42; 2123,000; 2202,000;    0,000
 881,66; 2533,000; 2555,000;    0,000
 881,90; 1958,000; 2050,000;    0,000
 882,13; 1978,000; 2238,000;    0,000
 882,37; 2292,000; 2528,000;    0,000
 882,61; 2841,000; 2750,000;    0,000
 882,85; 2556,000; 2749,000;    0,000
 883,09; 3380,000; 3200,000;    0,000
 883,32; 3217,000; 3452,000;    0,000
 883,56; 3699,000; 3739,000;    0,000
 883,80; 3294,000; 3764,000;    0,000
 884,04; 4265,000; 4057,000;    0,000
 884,27; 5068,000; 5097,000;    0,000
 884,51; 4920,000; 4775,000;    0,000
 884,75; 5627,000; 5777,000;    0,000
 884,99; 6622,000; 6635,000;    0,000
 885,22; 7092,000; 7196,000;    0,000
 885,46; 8177,000; 8313,000;    0,000

